time (s)	magX	magY	magZ
4661.343423	-140.053772	258.528351	-144.719467
4661.346757	-138.125061	255.781418	-141.154297
4661.350092	-136.079498	251.865585	-136.595551
4661.353868	-133.975464	248.651077	-132.913498
4661.357206	-131.988312	245.845703	-128.413208
4661.360578	-129.592041	242.806534	-124.380478
4661.363848	-128.656921	240.059616	-120.172409
4661.367178	-125.909996	237.195786	-116.198120
4661.370514	-123.805962	234.390411	-112.808304
4661.373845	-122.286385	231.059036	-109.476913
4661.377207	-120.474571	228.370529	-106.671539
4661.380507	-118.662773	225.623611	-103.924606
4661.384301	-117.376976	222.935135	-100.943893
4661.387694	-115.097603	220.012863	-97.846283
4661.391000	-113.811806	218.201050	-94.807129
4661.394273	-112.000008	215.220337	-92.352432
4661.397602	-110.714195	212.356506	-89.780823
4661.400947	-109.136177	210.135590	-87.326126
4661.404292	-107.791939	207.797775	-85.163651
4661.407632	-106.213921	205.518417	-82.358276
4661.411046	-104.869667	203.063705	-79.903564
4661.414353	-103.759209	201.076569	-77.682648
4661.417676	-102.824074	198.914078	-75.578613
4661.421383	-101.538277	197.277618	-74.175919
4661.424717	-100.194038	195.056686	-72.305672
4661.428097	-99.726479	193.011108	-70.844536
4661.431440	-98.732903	191.374634	-68.915833
4661.434798	-97.622444	190.030396	-67.220924
4661.438154	-96.921104	187.867905	-65.876678
4661.441459	-95.401527	186.114548	-64.298660
4661.444775	-94.407951	184.127411	-63.246639
4661.448122	-93.589714	182.140259	-61.259499
4661.451501	-91.953239	181.322037	-60.207481
4661.454893	-91.310349	179.627121	-59.330803
4661.458648	-91.310349	177.406204	-57.986561
4661.462021	-90.024544	176.412628	-56.466976
4661.465311	-90.082993	175.243713	-55.590298
4661.468654	-89.147865	173.548798	-54.772064
4661.471997	-87.862076	172.087662	-53.836937
4661.475336	-87.452950	170.509644	-52.258915
4661.478665	-86.400940	169.983627	-50.973118
4661.482106	-84.998253	168.990067	-50.914669
4661.485421	-84.706017	166.886032	-49.745766
4661.488701	-84.589134	166.243134	-48.693745
4661.492027	-84.004677	165.191116	-47.933956
4661.495830	-82.894218	164.080658	-46.881939
4661.499137	-82.309761	163.320862	-46.355934
4661.502477	-81.900642	162.151947	-45.420807
4661.505809	-81.257751	161.041489	-44.018120
4661.509150	-80.264175	159.814133	-44.427235
4661.512561	-79.855064	159.288147	-43.550556
4661.515891	-79.971947	158.352997	-41.972530
4661.519260	-78.978371	157.710114	-41.621857
4661.522634	-78.101692	156.716537	-40.978958
4661.525960	-77.517250	155.898300	-40.628288
4661.529256	-77.458801	155.489197	-40.452950
4661.532607	-77.341904	155.313843	-39.342491
4661.535947	-76.523674	154.144943	-38.758034
4661.539313	-76.172997	152.976028	-38.641144
4661.543027	-75.822327	152.391586	-38.173584
4661.546741	-75.588547	153.268265	-37.589130
4661.550069	-75.062538	153.092926	-36.946228
4661.553405	-74.594978	151.865570	-37.004677
4661.556771	-74.770309	151.222672	-36.770893
4661.560072	-74.361191	151.573349	-36.420219
4661.563404	-74.068962	150.813568	-36.478668
4661.566735	-73.659851	150.404434	-36.478668
4661.570091	-74.010513	150.638214	-35.718880
4661.573396	-73.659851	150.287552	-35.075981
4661.576731	-73.250732	150.112213	-35.894215
4661.580065	-73.309174	149.819992	-36.011105
4661.583400	-73.659851	149.995331	-35.543541
4661.586729	-73.718300	149.644638	-36.244888
4661.590069	-73.367622	149.644638	-35.835770
4661.593397	-73.367622	149.703094	-36.478668
4661.597203	-73.659851	149.995331	-35.660431
4661.600529	-73.542953	150.404434	-36.186440
4661.603849	-73.075386	150.346008	-36.478668
4661.607153	-73.776733	150.579788	-36.420219
4661.610486	-73.835182	150.696671	-35.835770
4661.613828	-73.601402	150.930450	-36.595558
4661.617153	-74.244293	151.105789	-36.127995
4661.620483	-73.893631	151.164230	-37.063118
4661.623825	-73.893631	151.456467	-37.180012
4661.627592	-74.010513	151.982468	-37.822910
4661.630995	-73.952080	151.807129	-37.589130
4661.634331	-74.536530	152.800705	-37.881355
4661.637612	-73.835182	152.800705	-38.232029
4661.640910	-74.770309	153.326706	-38.465813
4661.644250	-74.945641	153.794266	-39.284042
4661.647621	-75.120987	153.969604	-38.758034
4661.650925	-74.887207	154.963181	-39.108711
4661.654314	-74.361191	156.015182	-39.342491
4661.657655	-74.594978	156.365875	-40.043835
4661.660953	-75.004089	156.833435	-40.686733
4661.664693	-74.945641	158.236115	-40.452950
4661.668030	-75.939217	158.411453	-41.037407
4661.671426	-75.997665	159.638809	-41.621857
4661.674768	-76.348343	160.047928	-42.089424
4661.678096	-76.231445	161.801285	-43.024548
4661.681430	-76.815903	161.918167	-43.082993
4661.684733	-76.523674	162.677963	-44.076561
4661.688051	-77.458801	163.613083	-45.011688
4661.691413	-77.809464	165.249557	-45.654587
4661.694784	-78.335472	165.249557	-46.239040
4661.698143	-78.978371	166.827576	-46.881939
4661.701864	-79.329048	168.230286	-47.641731
4661.705209	-79.679718	169.574524	-49.278202
4661.708551	-80.381058	170.684982	-49.804211
4661.711924	-80.439507	172.087662	-50.914669
4661.715217	-81.433083	173.256577	-52.200466
4661.718535	-82.251312	175.009933	-52.784920
4661.721926	-82.660439	176.295731	-53.953827
4661.725264	-83.244881	177.873764	-55.531853
4661.728544	-83.887779	179.218002	-56.466976
4661.732273	-85.232033	180.971359	-58.278786
4661.735626	-85.816475	182.724716	-58.337231
4661.739032	-86.576271	184.653427	-60.382816
4661.742332	-87.920509	186.172989	-61.902397
4661.745660	-88.972534	187.692581	-63.714203
4661.749002	-89.673874	189.445938	-64.649323
4661.752390	-90.141441	191.900650	-65.993568
4661.755701	-90.959671	194.121567	-68.097603
4661.758957	-91.485680	196.050262	-70.201630
4661.762320	-92.070137	198.563416	-71.195206
4661.765648	-93.648163	199.966110	-73.007019
4661.769401	-94.700188	202.654587	-74.818817
4661.772650	-95.109291	205.109299	-77.039742
4661.775981	-96.161308	206.862656	-78.325539
4661.779367	-96.979546	209.551132	-81.247818
4661.782643	-98.090004	211.772064	-83.877853
4661.785953	-99.258919	214.402115	-85.806549
4661.789730	-99.784920	216.915253	-88.202805
4661.793375	-101.012276	219.720627	-90.423737
4661.796716	-102.239616	221.766220	-92.819992
4661.800045	-102.999413	224.104034	-94.748688
4661.803378	-103.350090	227.552307	-98.196960
4661.806707	-104.460548	230.123917	-100.768555
4661.810042	-105.454124	232.987717	-103.457047
4661.813376	-106.097023	235.442429	-106.496201
4661.816730	-108.084160	238.773804	-110.178253
4661.820045	-109.019295	241.520752	-112.282288
4661.823372	-110.305077	244.501450	-116.665695
4661.826723	-111.649315	247.482162	-120.289307
4661.830048	-112.759789	250.346008	-122.802460
4661.833368	-114.279366	254.028046	-127.185852
4661.836708	-115.915840	257.008789	-130.984802
4661.840037	-116.909416	260.515503	-135.134415
4661.843371	-118.195213	264.489807	-140.102280
4661.847131	-119.481010	267.704285	-144.485687
4661.850469	-121.292824	271.444763	-147.933960
4661.853805	-122.461723	274.834595	-153.486267
4661.857127	-124.039742	278.166016	-158.629456
4661.860499	-125.500877	282.432495	-163.889542
4661.863817	-127.546471	286.114563	-169.266510
4661.867152	-128.715363	290.030396	-174.468155
4661.870542	-129.767395	293.770905	-181.014023
4661.873812	-131.637634	297.745209	-186.449448
4661.877550	-133.390991	301.719482	-192.352432
4661.880885	-134.735229	305.693756	-199.307434
4661.884245	-136.196381	309.843384	-205.151962
4661.887566	-138.066620	313.817657	-212.691422
4661.890970	-139.118652	317.382843	-218.828171
4661.894314	-140.930450	321.532440	-226.776733
4661.897673	-142.800690	325.798950	-234.082397
4661.900888	-144.144928	330.065460	-241.680298
4661.904241	-145.196960	334.215088	-249.979553
4661.907996	-146.833435	338.306274	-257.694336
4661.911391	-149.054352	342.222107	-265.642883
4661.914731	-149.755707	345.904144	-274.701935
4661.918071	-150.690826	350.872009	-283.585632
4661.921396	-151.450623	354.086517	-292.469299
4661.924696	-153.554657	358.119263	-302.346558
4661.928005	-154.781982	362.093506	-311.405609
4661.931391	-155.249573	365.950928	-321.984222
4661.934752	-155.541779	370.334320	-331.803040
4661.938081	-157.528931	373.782593	-342.381653
4661.941374	-157.938049	376.821747	-353.486237
4661.945169	-158.990051	380.737579	-364.649323
4661.948479	-159.632965	383.776764	-376.104614
4661.951784	-160.158966	387.458801	-388.144348
4661.955101	-160.392761	389.679749	-400.184082
4661.958421	-161.269440	392.777344	-412.866730
4661.961763	-161.152527	394.764465	-424.380463
4661.965112	-161.620117	397.219177	-438.524231
4661.968826	-161.912323	399.089447	-451.791351
4661.972130	-161.444763	400.550568	-465.701324
4661.975456	-161.327881	402.537689	-480.487976
4661.978832	-161.094086	403.005280	-494.865570
4661.982205	-160.509644	404.349518	-509.769135
4661.985498	-160.042084	403.998840	-526.250732
4661.988800	-158.931610	403.823517	-541.329651
4661.992107	-158.464050	403.765045	-556.993042
4661.995502	-157.002930	402.888397	-572.773254
4661.999269	-156.944489	401.894806	-590.131531
4662.002577	-154.840454	399.615448	-606.145508
4662.005875	-152.911743	397.219177	-623.094727
4662.009191	-150.690826	393.770905	-641.329651
4662.012565	-148.937469	390.381073	-658.103455
4662.015876	-146.190521	386.231476	-674.994202
4662.019284	-143.443604	381.789612	-693.462891
4662.022629	-140.287567	376.646423	-710.704285
4662.025966	-136.897705	370.684998	-728.413208
4662.029274	-133.975464	363.554657	-746.355957
4662.033079	-130.351837	356.950317	-763.831116
4662.036690	-125.851555	349.177094	-780.780273
4662.040017	-121.818810	341.053192	-798.255371
4662.043349	-116.208061	331.818848	-816.198181
4662.046681	-111.240211	322.584473	-832.679687
4662.050015	-105.512566	313.057861	-849.336670
4662.053352	-100.310936	301.368805	-866.636536
4662.056690	-93.940392	291.199310	-883.059631
4662.060029	-87.336067	279.101135	-898.839905
4662.063353	-80.439507	266.827606	-914.094116
4662.066682	-73.952080	254.612503	-928.880737
4662.070052	-67.289307	241.988312	-944.368774
4662.073349	-59.808304	227.961426	-957.460571
4662.076689	-51.567505	214.109879	-971.545959
4662.080014	-44.261833	199.440094	-984.345398
4662.083352	-36.021042	184.770309	-996.443604
4662.086685	-27.429573	168.580948	-1009.243164
4662.090449	-18.779659	152.274689	-1018.711304
4662.093764	-10.363533	136.494446	-1029.698975
4662.097106	-2.181183	119.428406	-1039.985352
4662.100459	6.410286	102.479248	-1047.583374
4662.103789	15.118643	85.413208	-1056.350098
4662.107174	23.300993	68.113388	-1062.779053
4662.110441	33.002922	50.053768	-1068.506714
4662.113809	42.061951	32.578609	-1075.052612
4662.117098	50.887199	15.103449	-1077.974854
4662.120869	59.244888	-3.540619	-1081.306274
4662.124233	67.894798	-21.424898	-1082.533569
4662.127550	76.369370	-39.309177	-1084.170166
4662.130970	84.960846	-57.076565	-1084.111694
4662.134277	93.435417	-74.376389	-1081.773804
4662.137590	101.442436	-91.734657	-1079.319092
4662.140859	109.507889	-108.391586	-1075.403320
4662.144186	117.398010	-125.223846	-1071.019897
4662.147524	124.937462	-141.237869	-1065.058472
4662.150888	132.067795	-156.901230	-1058.103394
4662.154718	139.198120	-173.265930	-1049.862671
4662.157708	146.386902	-187.818817	-1040.978882
4662.161361	152.815903	-201.962601	-1031.627686
4662.164681	159.069550	-215.463455	-1020.172485
4662.168003	165.556976	-228.146118	-1007.782043
4662.171382	171.050842	-240.361176	-995.742310
4662.174747	176.778503	-252.517838	-982.124451
4662.178073	181.980133	-263.037964	-968.389832
4662.181368	187.240204	-273.499695	-954.070740
4662.184683	191.389832	-283.143188	-939.284119
4662.188456	196.007019	-293.137329	-922.744019
4662.191785	199.805969	-301.787231	-907.080688
4662.195082	203.429565	-309.735809	-891.125061
4662.198477	206.877838	-317.099915	-874.059082
4662.201784	210.092346	-323.587372	-856.583923
4662.205147	212.254822	-329.899445	-838.115173
4662.208427	215.235535	-335.393341	-820.639954
4662.211746	217.164215	-340.770294	-802.463501
4662.215076	219.151367	-345.036804	-785.046753
4662.218841	220.320282	-349.186432	-767.571594
4662.222247	222.307434	-353.102264	-748.343079
4662.225592	223.359436	-356.608978	-731.218567
4662.228875	224.002350	-359.531250	-712.749878
4662.232224	224.294556	-362.044403	-694.982483
4662.235558	224.469910	-363.330200	-677.156616
4662.238858	224.411438	-364.791351	-659.155457
4662.242252	224.586792	-366.661591	-641.037415
4662.245558	224.528351	-367.304504	-623.912903
4662.248889	223.184082	-367.888916	-606.437805
4662.252621	222.307434	-368.005829	-589.021057
4662.256052	221.372284	-368.590271	-572.539490
4662.259340	220.729401	-368.005829	-555.648743
4662.262659	218.625366	-366.953796	-539.050293
4662.266022	216.813568	-367.421356	-523.153137
4662.269357	215.586212	-365.375793	-506.437744
4662.272665	214.534180	-363.447083	-491.826416
4662.276023	212.137939	-362.044403	-475.111023
4662.279314	209.975464	-360.933960	-461.259491
4662.282682	207.871429	-359.414368	-446.589691
4662.286443	206.176514	-357.076538	-431.861481
4662.289992	203.897125	-354.329620	-417.717712
4662.293333	202.026886	-351.465790	-404.041473
4662.296659	199.163055	-348.952637	-391.358856
4662.299995	196.533020	-346.322601	-378.500854
4662.303326	194.312103	-343.108093	-365.526001
4662.306657	192.441833	-340.828735	-353.252472
4662.309992	189.344238	-337.322021	-341.563385
4662.313325	187.824677	-333.990631	-330.634125
4662.316660	185.136169	-330.600800	-320.113983
4662.319990	183.850372	-327.269409	-308.600220
4662.323329	180.635895	-324.230255	-299.541199
4662.326657	179.408539	-320.781982	-289.430145
4662.330013	176.427826	-317.684387	-280.020447
4662.333325	174.732910	-313.943878	-271.721191
4662.337140	172.395081	-310.028015	-262.720642
4662.340414	170.115723	-307.690216	-254.304489
4662.343742	168.596130	-303.482147	-246.589722
4662.347080	165.849213	-299.975433	-238.991821
4662.350419	164.388062	-296.644043	-231.627716
4662.353742	162.050262	-292.903534	-222.977798
4662.357080	159.829346	-289.981293	-217.133255
4662.360413	157.959091	-286.766785	-210.295151
4662.363769	155.387497	-283.201630	-203.866165
4662.367105	154.160141	-279.636444	-196.502045
4662.370449	152.056107	-276.421967	-191.008194
4662.374193	149.893631	-273.324341	-185.222092
4662.377507	147.672699	-269.583832	-180.137344
4662.380831	145.685562	-267.070709	-173.299240
4662.384200	143.639984	-263.271759	-167.863831
4662.387528	142.061951	-259.881927	-163.305099
4662.390958	140.191696	-257.427216	-158.337234
4662.394252	137.737000	-254.446518	-154.246063
4662.397559	135.866760	-251.758041	-149.219757
4662.401282	134.288727	-248.251312	-145.245468
4662.404628	132.126251	-245.329041	-140.862076
4662.408022	130.431335	-242.289886	-135.894211
4662.411345	129.145538	-239.426056	-131.452362
4662.414671	126.340149	-237.088242	-127.945648
4662.418029	124.937462	-234.458221	-123.912918
4662.421376	123.651665	-232.587967	-120.230865
4662.424636	121.547630	-229.841034	-117.308594
4662.428030	119.560493	-226.684998	-113.158966
4662.431357	118.333138	-224.639389	-110.061371
4662.434712	116.345993	-221.483337	-106.496201
4662.438452	115.527763	-220.139084	-102.931030
4662.441798	113.774399	-216.983047	-100.534775
4662.445099	112.547043	-215.580353	-97.612503
4662.448407	110.501465	-213.359436	-95.333145
4662.451670	109.507889	-210.670959	-93.053772
4662.454987	108.572762	-208.508484	-89.956161
4662.458327	107.345413	-206.053772	-88.261246
4662.462110	106.527176	-204.066620	-85.806549
4662.465413	105.066040	-201.845703	-83.234955
4662.468683	103.955582	-200.443024	-81.598480
4662.472017	103.546463	-198.397430	-79.552895
4662.475347	102.377556	-196.644058	-77.799530
4662.478756	100.974869	-195.007599	-75.637054
4662.482046	100.507309	-193.254242	-73.649910
4662.485366	99.279953	-191.500885	-71.955002
4662.489145	98.695496	-189.630630	-70.786087
4662.492425	98.111046	-188.169495	-69.324951
4662.495892	96.942139	-186.942139	-68.389832
4662.499268	96.591461	-185.597900	-66.052017
4662.502597	95.071884	-184.195206	-65.058441
4662.505974	95.013443	-182.617172	-64.181763
4662.509273	94.253654	-182.091187	-63.012859
4662.512622	93.260078	-179.987152	-61.727062
4662.515960	92.675629	-178.642899	-60.967270
4662.519279	91.740501	-178.058456	-59.038574
4662.522558	91.389832	-176.947983	-58.863239
4662.525880	90.279373	-176.305084	-56.876095
4662.529313	89.694916	-175.194626	-56.583866
4662.532699	88.993576	-174.084167	-55.473408
4662.536095	88.642899	-172.330795	-53.661602
4662.539431	88.350670	-171.921692	-54.012272
4662.543157	87.649323	-171.454117	-53.953827
4662.546640	86.538864	-170.402100	-52.726475
4662.549970	85.779076	-169.291641	-52.492695
4662.553323	85.545296	-168.590302	-50.739334
4662.556634	84.843948	-167.479843	-49.044418
4662.559962	84.551727	-167.070709	-49.161312
4662.563299	84.376389	-166.310928	-48.167736
4662.566630	83.908829	-165.551147	-46.765049
4662.569969	83.324371	-165.025131	-46.823494
4662.573300	82.915253	-164.557571	-46.005260
4662.576637	81.863235	-164.323792	-45.128578
4662.579967	82.097015	-163.447113	-44.661018
4662.583766	81.571014	-163.096436	-44.135010
4662.587108	81.278778	-162.453537	-44.018120
4662.590449	81.161896	-161.401520	-43.667446
4662.593723	80.869667	-161.869095	-43.842781
4662.597080	79.992981	-161.109299	-42.673874
4662.600395	80.226768	-160.817062	-43.141438
4662.603725	79.817650	-160.992401	-42.966103
4662.607054	80.051430	-159.765060	-42.323204
4662.610385	80.577438	-160.115723	-42.556984
4662.614209	79.876099	-160.174164	-41.738747
4662.617557	79.583870	-160.057266	-41.738747
4662.620923	79.759201	-159.881943	-41.446522
4662.624217	79.466980	-159.940384	-42.147865
4662.627509	79.700760	-159.881943	-42.147865
4662.630810	80.109879	-159.998840	-41.563412
4662.634209	80.285217	-159.414383	-41.738747
4662.637501	79.642319	-159.940384	-42.440094
4662.640852	79.583870	-160.349503	-42.440094
4662.644223	80.869667	-160.700180	-42.673874
4662.647558	80.343658	-160.933960	-42.556984
4662.651234	80.460548	-161.284622	-42.498539
4662.654595	80.635880	-161.459961	-43.024548
4662.658012	80.811218	-161.810638	-43.316772
4662.661348	80.869667	-162.044418	-44.018120
4662.664658	80.051430	-162.628876	-44.485680
4662.667989	81.161896	-162.628876	-44.368790
4662.671347	80.811218	-163.388657	-45.654587
4662.674663	81.044998	-163.797775	-44.544128
4662.678082	81.687897	-164.674469	-45.771477
4662.681374	81.512566	-165.200470	-46.122150
4662.684763	81.746346	-165.843369	-46.414375
4662.688561	81.687897	-166.603149	-46.239040
4662.691919	82.330795	-167.070709	-47.174164
4662.695218	82.330795	-167.947403	-48.401520
4662.698555	82.038574	-168.707199	-48.927528
4662.701906	82.739914	-169.408539	-48.459961
4662.705202	82.973694	-170.226761	-49.395092
4662.708576	83.441261	-171.454117	-50.388664
4662.712027	83.791931	-171.687912	-50.622444
4662.715324	83.675049	-172.213913	-51.148453
4662.718631	84.434830	-173.149048	-52.843365
4662.721956	84.668610	-175.077728	-52.375805
4662.725728	85.837524	-176.421982	-53.661602
4662.729162	85.895966	-176.947983	-54.070717
4662.732058	85.779076	-178.584457	-55.414963
4662.735805	86.538864	-178.993576	-56.642315
4662.739139	87.590881	-180.454712	-57.752773
4662.742528	87.766220	-182.149612	-58.746349
4662.745888	88.409119	-183.493866	-60.207481
4662.749216	89.753357	-184.487427	-61.084164
4662.752567	89.168907	-185.656342	-62.253067
4662.755905	89.987137	-187.468155	-63.772648
4662.759180	90.337814	-188.169495	-65.584457
4662.762490	91.565170	-190.215073	-67.454712
4662.766243	91.857391	-191.617767	-68.740509
4662.769948	93.143188	-193.838699	-70.201630
4662.773282	94.195206	-195.241379	-72.539452
4662.776608	95.364113	-197.520752	-73.825256
