crossing time (s)	slope (V/s)	crossing number
7732.098237	83.509159	1395
7733.125319	72.104824	1396
7734.118981	59.955072	1397
7735.153222	47.989929	1398
7736.156154	41.347614	1399
7737.157682	36.573627	1400
7738.163354	28.072097	1401
7739.200732	22.080411	1402
7740.179625	16.713879	1403
7741.187998	11.825124	1404
7742.206221	10.441824	1405
7743.204251	8.207899	1406
7744.209708	5.996423	1407
7745.243639	5.041860	1408
