time (s)	magX	magY	magZ
8114.159434	-225.514313	133.398605	108.811806
8114.162746	-228.436584	135.561081	112.260086
8114.166075	-231.183533	138.074219	116.994164
8114.169463	-234.339569	139.243134	121.202232
8114.172788	-237.144958	141.697845	125.234962
8114.176093	-240.242554	144.035645	130.202789
8114.179876	-243.164825	146.490356	134.235519
8114.183205	-245.794891	148.945053	138.268265
8114.186571	-248.892456	151.224426	143.060776
8114.189902	-252.223846	153.503799	148.087067
8114.193250	-256.198120	156.367630	152.587372
8114.196592	-258.477509	158.120987	158.081238
8114.199928	-262.042664	160.575684	163.516647
8114.203245	-265.257172	162.738159	169.127411
8114.206550	-268.939209	165.426651	175.088837
8114.209868	-273.264191	167.004669	180.816467
8114.213629	-277.063141	168.933365	187.303909
8114.217123	-280.160736	170.920517	194.258911
8114.220452	-284.894806	172.147858	201.038574
8114.223787	-288.810638	174.836349	208.052017
8114.227118	-292.843384	176.648148	215.766785
8114.230450	-297.226776	178.284622	223.890717
8114.233781	-301.668640	180.213318	231.371719
8114.237143	-306.285797	182.142029	239.437180
8114.240450	-310.844543	183.720047	247.970169
8114.243783	-315.403290	186.350082	258.315033
8114.247117	-319.260681	187.928101	266.789581
8114.250450	-323.527191	189.330795	276.842194
8114.253785	-327.618378	191.317947	288.063721
8114.257555	-332.878418	193.012863	297.882538
8114.260877	-335.800690	195.876678	310.272949
8114.264206	-340.768555	196.578033	321.845123
8114.267549	-343.866180	199.208054	333.534210
8114.270875	-348.717133	200.961426	344.463470
8114.274253	-351.464050	203.357681	358.198120
8114.277569	-355.263000	205.812378	370.647003
8114.280897	-357.951508	208.091766	384.089447
8114.284207	-361.633545	210.137360	397.648743
8114.287580	-364.322052	212.416718	412.026306
8114.291285	-366.075409	214.637634	425.702515
8114.294621	-368.237885	216.800110	441.015198
8114.298002	-370.283478	218.436584	455.568115
8114.301330	-371.978363	221.066635	471.874359
8114.304708	-372.445953	222.410858	487.537720
8114.308040	-374.023987	223.872009	502.908844
8114.311304	-374.082397	225.333130	519.507263
8114.314624	-375.192871	226.560486	536.047302
8114.317992	-375.309784	227.846283	553.230225
8114.321797	-374.549988	227.729401	570.296326
8114.325129	-374.140869	228.138504	586.602539
8114.328474	-373.731750	228.606079	605.305054
8114.331836	-371.919952	228.138504	623.364685
8114.335212	-371.277039	227.554047	640.372314
8114.338516	-368.822357	225.450027	659.483948
8114.341887	-366.192291	223.345978	678.069519
8114.345198	-363.854492	220.599075	697.064270
8114.348534	-361.165985	217.910568	715.766785
8114.351849	-357.016388	214.170059	735.638184
8114.355212	-353.684998	209.903564	754.516052
8114.358553	-349.067810	205.403275	774.738159
8114.361928	-343.457031	200.610748	795.194031
8114.365636	-338.430756	194.824661	814.948547
8114.369012	-331.651093	188.220337	834.235535
8114.372344	-323.877869	181.908234	854.399170
8114.375697	-317.565765	174.076553	873.686096
8114.379063	-308.097595	166.770889	893.499146
8114.382348	-298.629456	159.173004	913.019836
8114.385633	-288.576874	150.406189	931.780762
8114.388993	-278.056702	142.457626	950.892395
8114.392761	-266.484528	133.690826	968.659851
8114.396109	-253.684998	124.924019	987.479248
8114.399388	-240.359467	115.631210	1004.136169
8114.402734	-225.631226	106.630623	1020.559326
8114.406061	-211.195221	97.746925	1036.456421
8114.409345	-196.408539	88.337227	1050.249512
8114.412710	-179.926941	79.453537	1064.101074
8114.416016	-163.153137	69.751610	1077.484985
8114.419389	-144.918182	60.049679	1088.823486
8114.423137	-127.852135	51.282875	1097.882568
8114.426472	-108.915840	41.756283	1108.285767
8114.429853	-90.564003	32.463470	1116.117432
8114.433169	-70.634132	23.579777	1123.832275
8114.436518	-51.113388	13.994740	1129.267700
8114.439822	-30.715954	3.240795	1134.469238
8114.443163	-11.136761	-6.402688	1136.631714
8114.446424	8.676212	-14.877263	1138.677368
8114.449794	29.248976	-24.696087	1138.969604
8114.453570	48.360603	-34.222679	1138.268188
8114.457124	67.998245	-43.749271	1137.333130
8114.460431	87.226761	-53.451195	1134.293945
8114.463761	106.396843	-63.386909	1129.968994
8114.467096	124.865570	-72.621277	1125.702515
8114.470425	142.749847	-82.323204	1120.267090
8114.473794	160.984802	-91.849800	1112.669189
8114.477093	177.992401	-101.376389	1104.837524
8114.480432	195.467560	-113.065453	1095.135498
8114.483761	211.949158	-121.949158	1084.323120
8114.487093	226.911163	-131.183517	1074.095215
8114.490430	242.399200	-141.119232	1060.652832
8114.493759	257.010529	-150.002914	1048.145508
8114.497094	270.452942	-158.945053	1032.949707
8114.500852	283.836945	-167.594986	1018.279907
8114.504212	296.402679	-176.244888	1001.330811
8114.507537	308.267090	-183.609009	983.972534
8114.510870	320.014618	-190.037994	966.497375
8114.514184	331.236115	-197.226776	948.262390
8114.517535	341.580933	-203.363525	928.157227
8114.520848	350.523071	-208.798950	909.045532
8114.524189	360.166565	-213.766800	889.641724
8114.527520	368.582703	-218.091766	868.776733
8114.531299	376.005249	-221.949158	849.372803
8114.534624	383.077148	-225.455872	828.741577
8114.538064	390.265900	-227.793686	806.707703
8114.541351	395.642883	-230.131500	786.134949
8114.544628	402.305664	-231.534180	766.205139
8114.547941	407.215057	-233.521332	745.515442
8114.551268	412.007599	-233.813553	724.767334
8114.554629	415.280518	-234.690247	706.064880
8114.557963	419.313263	-235.333145	685.024536
8114.561396	422.118622	-235.040909	666.029785
8114.564682	424.047333	-234.514908	646.099915
8114.568443	426.268250	-233.755127	627.572754
8114.571767	427.495605	-232.644669	608.402710
8114.575086	428.547638	-231.884872	589.583252
8114.578450	429.307434	-230.715958	570.705444
8114.581776	428.956757	-230.014618	552.938049
8114.585122	429.015167	-228.611938	536.047302
8114.588455	427.437164	-227.676804	518.279968
8114.591776	426.443604	-226.858551	501.623077
8114.595101	425.099335	-225.222092	484.732330
8114.598900	422.995331	-223.234955	469.945648
8114.602254	421.066620	-222.533615	452.704285
8114.605585	417.968994	-220.721802	437.333160
8114.608888	415.689636	-219.669785	423.598480
8114.612260	412.533600	-218.851547	407.584473
8114.615552	409.319092	-217.156631	393.674469
8114.618895	405.812378	-215.812378	380.115143
8114.622187	401.721191	-214.000595	367.432526
8114.625968	397.571594	-213.007004	354.165405
8114.629325	393.597321	-211.955002	341.482788
8114.632650	389.564575	-210.552322	329.501465
8114.636042	385.064270	-208.974274	316.468170
8114.639331	380.505554	-207.630051	306.123322
8114.642669	375.888367	-205.584457	295.077148
8114.645950	371.972534	-203.889542	283.680298
8114.649282	367.063110	-202.662186	273.043274
8114.652655	363.556396	-199.973709	263.867340
8114.655988	358.997650	-197.694336	253.814713
8114.659730	354.263580	-196.057861	243.411453
8114.663003	349.821716	-194.070724	234.469315
8114.666347	345.905884	-191.791351	226.345398
8114.669659	341.405609	-189.570419	218.279953
8114.672965	337.431335	-186.706604	210.682053
8114.676303	332.638794	-184.427231	202.149033
8114.679618	329.248962	-182.206314	195.252472
8114.683460	325.859131	-179.284042	188.297485
8114.687076	321.826416	-176.654007	180.758041
8114.690407	318.027466	-174.666870	175.088837
8114.693740	314.871429	-171.569260	168.426056
8114.697091	310.604889	-169.231445	162.581528
8114.700404	307.565765	-166.659851	155.918747
8114.703735	303.883698	-164.380478	151.067795
8114.707083	300.201630	-161.750427	145.690826
8114.710420	296.168884	-159.237289	141.365860
8114.713737	294.006409	-157.367035	136.164230
8114.717072	290.149048	-155.146118	130.904144
8114.720410	286.992981	-153.392761	127.105202
8114.723737	283.836945	-150.528931	123.189369
8114.727072	280.388672	-148.541794	119.215080
8114.730402	276.765045	-147.080658	115.357697
8114.733738	273.667450	-145.210403	111.383400
8114.737497	270.511383	-143.632370	106.883118
8114.740853	267.589142	-141.411453	102.850388
8114.744163	265.075958	-140.184097	99.518997
8114.747515	261.277039	-138.722961	95.836937
8114.750853	258.997650	-137.612503	91.979546
8114.754187	255.841614	-136.268265	89.583290
8114.757567	253.036224	-134.748688	86.076569
8114.760831	249.763306	-133.755112	82.862068
8114.764160	247.250153	-132.177094	80.290474
8114.767907	244.737000	-131.358856	77.485100
8114.771265	241.230286	-130.832855	75.147285
8114.774607	238.600220	-129.663940	72.400352
8114.777992	236.320862	-128.436584	70.120987
8114.781326	233.632385	-127.209229	67.607834
8114.784693	231.119232	-126.332550	65.796028
8114.787917	229.307404	-124.929871	63.691994
8114.791253	226.209808	-124.170074	61.237289
8114.794578	223.813568	-122.884277	59.542374
8114.797941	221.592651	-121.715378	57.263008
8114.801282	220.540619	-120.955582	55.684982
8114.804662	218.319702	-119.962006	54.574524
8114.808463	216.683228	-118.442444	52.762711
8114.811822	214.812958	-117.331970	51.009354
8114.815189	213.410278	-117.039734	49.723557
8114.818513	211.423157	-115.753944	48.145531
8114.821845	210.137329	-114.585037	47.093513
8114.825149	208.500885	-113.591469	45.457039
8114.828457	207.624207	-112.422562	43.762131
8114.831783	206.279968	-111.019875	43.119232
8114.835113	205.695496	-110.201645	41.424309
8114.838519	203.533020	-109.208069	41.365868
8114.841844	203.065460	-107.746933	39.846291
8114.845581	201.721222	-107.220924	38.443604
8114.848929	201.662781	-106.694908	38.151375
8114.852241	200.435425	-105.935127	37.099358
8114.855644	198.915833	-104.707779	35.872002
8114.858949	197.746918	-104.181763	35.872002
8114.862267	196.636475	-103.597321	35.112213
8114.865606	195.876678	-103.188187	34.469315
8114.868933	195.116882	-102.779076	32.949738
8114.872308	194.298645	-101.493286	32.306839
8114.875680	194.006439	-101.317940	32.189949
8114.879400	192.603729	-100.908829	32.540619
8114.882679	191.668610	-100.733490	29.852133
8114.886035	191.084167	-100.382812	29.443018
8114.889343	189.798370	-100.324379	28.449442
8114.892725	189.155457	-100.324379	28.040327
8114.896067	188.395691	-100.324379	28.157217
8114.899389	187.226776	-100.265930	27.280539
8114.902727	187.343658	-100.558159	28.098772
8114.906060	186.350067	-99.681473	26.754530
8114.909831	185.824097	-99.973701	26.579191
8114.913197	185.005829	-99.798370	25.994741
8114.916496	184.830505	-99.623032	26.111631
8114.919849	184.070709	-100.032150	25.702513
8114.923189	183.836945	-100.324379	25.118059
8114.926580	183.427826	-99.915253	25.877848
8114.929898	183.252502	-99.798370	25.585623
8114.933235	182.434235	-99.506134	25.001169
8114.936596	182.609589	-100.324379	25.293394
8114.939978	182.551147	-99.739922	24.767389
8114.943717	182.492706	-98.863243	24.884279
8114.947052	182.083557	-99.623032	24.592051
8114.950384	182.609589	-99.739922	24.825834
8114.953713	182.901825	-99.155457	24.825834
8114.957046	183.895386	-99.272354	25.819403
8114.960381	183.895386	-99.272354	25.410288
8114.963712	184.421387	-98.921677	25.410288
8114.967040	184.479828	-99.038574	25.059614
8114.970401	185.005829	-99.389252	26.286966
8114.973707	185.765625	-99.155457	26.053186
8114.977042	185.824097	-99.447693	26.228521
8114.980820	186.759216	-99.097023	27.222090
8114.984202	187.226776	-99.155457	27.806543
8114.987471	187.635895	-99.915253	27.806543
8114.990803	187.869659	-99.915253	28.741674
8114.994143	188.980133	-99.739922	28.390997
8114.997468	189.564575	-100.616592	29.384573
8115.000823	190.207489	-101.142609	29.267683
8115.004129	190.791931	-101.727066	30.085917
8115.007465	191.317932	-101.960846	31.021040
8115.010825	192.603729	-101.960846	31.313269
8115.014644	193.071320	-102.662193	31.430159
8115.017951	194.123322	-103.129753	31.722387
8115.021221	194.941559	-103.831100	32.482178
8115.024561	194.824646	-104.707779	32.715958
8115.027880	196.110474	-105.175339	33.358856
8115.031242	197.162476	-105.876678	34.644653
8115.034571	197.688477	-106.578026	35.813560
8115.038093	198.798950	-107.571602	36.164230
8115.041291	199.266510	-108.389832	36.690239
8115.044993	200.435425	-109.675629	37.742256
8115.048338	201.253662	-110.610756	39.203392
8115.051683	203.240784	-111.662766	39.670952
8115.055065	204.351257	-112.656342	41.365868
8115.058406	205.169495	-113.766800	41.891876
8115.061758	206.922852	-114.351257	43.762131
8115.065090	208.793091	-115.929276	45.047928
8115.068429	209.669769	-116.630623	46.041496
8115.071832	211.072479	-117.565750	47.911743
8115.075103	212.299835	-118.617767	49.489777
8115.078420	214.462311	-118.734650	50.191116
8115.082168	216.566345	-120.137344	51.418472
8115.085499	218.319702	-121.072464	53.697838
8115.088815	221.008179	-122.066040	55.217415
8115.092118	222.644653	-123.585632	57.029228
8115.095447	224.807129	-124.345413	59.308594
8115.098797	227.670959	-125.222092	61.120399
8115.102177	230.242523	-126.040329	63.165993
8115.105479	232.346588	-126.683228	65.562248
8115.108856	234.684387	-127.969025	67.900055
8115.112630	237.139099	-129.254822	70.062538
8115.115971	240.295135	-130.365280	73.452370
8115.119308	242.749847	-131.884857	75.381065
8115.122655	245.672119	-132.644653	78.244888
8115.125956	247.776154	-133.696671	80.524254
8115.129307	251.165985	-134.924011	83.738754
8115.132632	253.737579	-136.677383	86.602570
8115.135910	256.250732	-138.664536	89.232620
8115.139740	258.763885	-140.242554	93.031555
8115.143027	261.452362	-141.762115	96.012276
8115.146392	264.374634	-143.515488	98.992989
8115.149681	266.946228	-145.502640	102.791939
8115.153042	268.933380	-147.255997	106.123322
8115.156365	272.089417	-149.418472	110.682053
8115.159732	274.894806	-150.938049	114.247223
8115.163084	278.167755	-152.749863	118.396858
8115.166379	280.739319	-155.379898	122.254234
8115.170150	283.194031	-157.542374	126.579201
8115.173694	286.525421	-159.412613	131.605484
8115.177027	289.389252	-161.633545	135.287552
8115.180360	291.785492	-164.146698	140.313843
8115.183693	295.292236	-166.542953	145.573929
8115.187023	298.682037	-168.413208	150.892456
8115.190355	301.487427	-171.393921	156.269424
8115.193690	305.169464	-173.965530	162.990646
8115.197024	308.325531	-176.244888	169.361191
8115.200353	312.533600	-178.874939	175.322617
8115.203695	316.098755	-180.920517	182.569839
8115.207023	319.371704	-183.550552	188.940384
8115.210358	323.521332	-185.771469	196.655151
8115.213685	327.670959	-188.459961	204.428391
8115.217065	332.112793	-189.921097	212.376984
8115.220785	335.970184	-192.668045	219.273514
8115.224111	340.295135	-194.713623	227.748093
8115.227440	344.853882	-196.817642	237.391571
8115.230806	348.769714	-199.389252	245.164810
8115.234109	353.503784	-200.850372	255.684982
8115.237437	357.653412	-203.305084	264.977814
8115.240780	361.686157	-205.116898	275.965515
8115.244137	366.712433	-207.104019	285.901215
8115.247478	370.920502	-209.032730	297.882538
8115.251307	375.011688	-210.786087	308.578033
8115.254534	378.635315	-212.948578	320.325562
8115.257866	383.135590	-215.403275	332.599091
8115.261231	387.051422	-217.507294	344.989471
8115.264555	390.149048	-219.026886	357.789032
8115.267888	394.123322	-220.897141	370.939209
8115.271278	398.214478	-223.118057	384.732330
8115.274643	401.136749	-225.280533	397.181183
8115.277941	403.533020	-227.969040	411.909424
8115.281619	406.396820	-230.073059	426.579193
8115.284998	408.968445	-231.008179	441.599640
8115.288368	411.189362	-234.281128	456.269440
8115.291693	412.767365	-236.092941	472.225037
8115.295076	414.988281	-238.606079	488.297516
8115.298401	415.806549	-240.534775	503.493317
8115.301734	416.624786	-242.989471	520.500854
8115.305036	417.618347	-244.859726	538.034424
8115.308369	417.442993	-247.197540	554.925171
8115.311696	417.618347	-248.658691	573.218567
8115.315484	416.858551	-250.002930	591.336670
8115.318775	416.683228	-251.697845	609.571533
8115.322175	415.806549	-253.217407	628.800110
8115.325451	414.111633	-254.386322	648.262390
8115.328819	412.299805	-254.210968	667.549377
8115.332111	410.312683	-255.379913	688.297485
8115.335396	407.448853	-255.905914	706.766174
8115.339209	404.234344	-254.210968	727.748047
8115.342521	400.610748	-253.451202	747.970154
8115.345833	396.519592	-251.873169	768.542908
8115.349116	391.727051	-250.470490	789.407898
8115.352445	386.291626	-248.483337	810.331421
8115.355752	380.563995	-246.203979	830.027466
8115.359159	373.901215	-242.638809	849.898865
8115.362445	367.063110	-238.781418	870.471619
8115.365759	359.465210	-235.391571	891.862671
8115.369572	351.691986	-230.423721	909.922302
8115.372906	342.457611	-225.864990	929.618347
8115.376254	333.398590	-220.604904	950.132629
8115.379623	322.586182	-214.585022	967.607849
8115.382925	312.241394	-208.623611	985.141418
8115.386298	300.376953	-201.960831	1002.090576
8115.389611	288.687897	-195.181183	1018.513794
8115.392952	275.420807	-189.102859	1033.767944
8115.396266	262.796600	-181.504974	1048.028564
8115.399598	248.594391	-174.491516	1061.646362
8115.402940	233.457031	-167.127411	1074.913452
8115.406691	218.319702	-159.412613	1085.842773
8115.410333	203.240784	-152.399185	1097.239624
8115.413666	186.525421	-144.216827	1107.409058
8115.417024	169.868500	-136.326721	1115.942139
8115.420336	152.744003	-128.670364	1124.124512
8115.423671	135.268845	-120.897141	1130.378052
8115.426999	116.858559	-112.188782	1136.281128
8115.430332	98.448273	-104.707779	1140.313843
8115.433664	79.570419	-95.707184	1144.171143
8115.436998	60.926357	-88.109291	1147.327271
8115.440353	42.457626	-79.050262	1147.561035
8115.443664	22.177088	-70.400352	1147.093506
8115.447002	2.597895	-61.575104	1146.333618
8115.450330	-15.929283	-52.165398	1143.236084
8115.453667	-35.625370	-42.814144	1139.787842
8115.457430	-53.451202	-33.287552	1134.644653
8115.460793	-72.212158	-23.234951	1129.209229
8115.464083	-90.680885	-14.117475	1121.026855
8115.467417	-108.682060	-3.655757	1113.370483
8115.470759	-126.566338	6.689071	1104.662231
8115.474105	-143.281708	18.670368	1094.434204
8115.477468	-160.932220	28.839859	1082.803589
8115.480768	-176.128021	39.126240	1070.705322
8115.484109	-191.791351	49.821739	1058.081177
8115.487846	-207.162476	60.283463	1043.879028
8115.491179	-221.306244	70.978958	1029.735229
8115.494502	-234.456482	81.265335	1014.305664
8115.497860	-247.782013	91.493279	998.116272
8115.501221	-260.055542	101.312096	981.751587
8115.504603	-271.978394	110.780243	964.685486
8115.507915	-283.141449	119.430161	947.502563
8115.511177	-292.668030	128.839874	928.449402
8115.514500	-302.954407	137.255997	910.915833
8115.518284	-312.130341	145.146103	891.921082
8115.521230	-320.663361	152.685562	873.744568
8115.525004	-327.676819	159.523666	854.925232
8115.528355	-335.566925	165.718872	836.164246
8115.531724	-342.872620	171.388077	818.046143
8115.535037	-348.483368	176.589722	799.226746
8115.538378	-354.912323	181.849792	780.816467
8115.541743	-360.113983	185.064301	761.120361
8115.545056	-363.912933	189.272354	744.054321
8115.548378	-369.173004	192.603745	726.403809
8115.551678	-373.088867	195.467560	708.110413
8115.555470	-376.303314	198.097595	691.862671
8115.558770	-379.459351	199.500290	675.030396
8115.562128	-381.095886	201.370544	657.146057
8115.565394	-383.492126	202.422562	640.372314
8115.568678	-386.355957	203.416138	623.481567
8115.572027	-387.700165	204.585037	607.000000
8115.575318	-388.459961	204.351257	590.401489
8115.578744	-389.102875	204.585037	574.562805
8115.582480	-389.453552	204.935715	558.139648
8115.585817	-389.687317	204.818817	542.417847
8115.589113	-389.219757	205.344818	526.345398
8115.592448	-388.693756	204.468140	511.500275
8115.595776	-387.057281	204.234360	496.538300
8115.599099	-385.596161	203.825256	482.102295
