time (s)	det(V)
7579.561014	-1.618353	
7579.562602	-1.618155	
7579.564100	-1.618119	
7579.565726	-1.617813	
7579.567403	-1.552381	
7579.568996	-1.387260	
7579.570678	-1.248819	
7579.572244	-1.172176	
7579.573952	-1.016046	
7579.575488	-0.892631	
7579.577194	-0.756264	
7579.578740	-0.607744	
7579.580451	-0.454216	
7579.581950	-0.279951	
7579.583707	-0.167529	
7579.585195	-0.023827	
7579.586994	0.142805	
7579.588472	0.254317	
7579.590280	0.418161	
7579.591757	0.556827	
7579.593540	0.679566	
7579.595016	0.770574	
7579.596780	0.936146	
7579.598287	1.066136	
7579.600059	1.217766	
7579.601560	1.287710	
7579.603293	1.482701	
7579.604809	1.542541	
7579.606540	1.632889	
7579.608079	1.635302	
7579.609704	1.635652	
7579.611279	1.635430	
7579.612868	1.635636	
7579.614473	1.635438	
7579.616034	1.635664	
7579.617647	1.635467	
7579.619173	1.635620	
7579.620856	1.635471	
7579.622336	1.635515	
7579.624039	1.635531	
7579.625517	1.635648	
7579.627243	1.635567	
7579.628722	1.635499	
7579.630445	1.635575	
7579.631932	1.635491	
7579.633639	1.635547	
7579.635117	1.635475	
7579.636827	1.635640	
7579.638323	1.635471	
7579.639894	1.635495	
7579.641438	1.635555	
7579.642979	1.635604	
7579.644593	1.635551	
7579.646081	1.635644	
7579.647725	1.635644	
7579.649233	1.635555	
7579.650883	1.635563	
7579.652364	1.635567	
7579.654004	1.635503	
7579.655477	1.635600	
7579.657117	1.635604	
7579.658595	1.635483	
7579.660226	1.635612	
7579.661736	1.635592	
7579.663323	1.635632	
7579.664845	1.635579	
7579.666393	1.635576	
7579.667991	1.635463	
7579.669478	1.635515	
7579.671161	1.635499	
7579.672654	1.635583	
7579.674288	1.635535	
7579.675805	1.635499	
7579.677368	1.635555	
7579.678880	1.635563	
7579.680422	1.635692	
7579.681953	1.635531	
7579.683488	1.635491	
7579.685061	1.635479	
7579.686547	1.635531	
7579.688119	1.635563	
7579.689638	1.635559	
7579.691228	1.635559	
7579.692725	1.635563	
7579.694297	1.635680	
7579.695823	1.635459	
7579.697404	1.635559	
7579.698912	1.635547	
7579.700462	1.635616	
7579.702001	1.635652	
7579.703487	1.635600	
7579.705088	1.635559	
7579.706583	1.635547	
7579.708176	1.635434	
7579.709677	1.635571	
7579.711254	1.635575	
7579.712771	1.635503	
7579.714337	1.635507	
7579.715860	1.635507	
7579.717373	1.635463	
7579.718943	1.635507	
7579.720453	1.635495	
7579.722044	1.635575	
7579.723525	1.635584	
7579.725120	1.635636	
7579.726641	1.635487	
7579.728226	1.635535	
7579.729712	1.635402	
7579.731240	1.635511	
7579.732807	1.635531	
7579.734327	1.635604	
7579.735884	1.635592	
7579.737376	1.635527	
7579.738987	1.635515	
7579.740485	1.635620	
7579.742063	1.635539	
7579.743590	1.635406	
7579.745194	1.635616	
7579.746689	1.635455	
7579.748259	1.635628	
7579.749778	1.635479	
7579.751337	1.635579	
7579.752882	1.635600	
7579.754378	1.635547	
7579.755980	1.635547	
7579.757480	1.635487	
7579.759077	1.635487	
7579.760573	1.635539	
7579.762159	1.635551	
7579.763669	1.635483	
7579.765223	1.635479	
7579.766755	1.635499	
7579.768327	1.635499	
7579.769852	1.635479	
7579.771389	1.635539	
7579.772939	1.635447	
7579.774469	1.635583	
7579.776048	1.635471	
7579.777542	1.635410	
7579.779122	1.635519	
7579.780652	1.635551	
7579.782192	1.635584	
7579.783737	1.635455	
7579.785259	1.635487	
7579.786827	1.635479	
7579.788338	1.635668	
7579.789921	1.635418	
7579.791424	1.635531	
7579.793043	1.635467	
7579.794535	1.635499	
7579.796136	1.635418	
7579.797625	1.635475	
7579.799218	1.635584	
7579.800715	1.635483	
7579.802284	1.635491	
7579.803807	1.635455	
7579.805360	1.635446	
7579.806910	1.635410	
7579.808407	1.635551	
7579.810200	1.635620	
7579.811679	1.635487	
7579.813451	1.635612	
7579.814947	1.635499	
7579.816696	1.635519	
7579.818203	1.635447	
7579.819945	1.635519	
7579.821458	1.635144	
7579.823177	1.635394	
7579.824706	1.634814	
7579.826431	1.634588	
7579.827976	1.582776	
7579.829675	1.527097	
7579.831242	1.440182	
7579.832931	1.450361	
7579.834490	1.367765	
7579.836158	1.366794	
7579.837727	1.248546	
7579.839368	1.260120	
7579.840975	1.223188	
7579.842604	1.180649	
7579.844241	1.109847	
7579.845745	1.108993	
7579.847448	1.059513	
7579.848921	1.013321	
7579.850636	1.015871	
7579.852115	0.956127	
7579.853821	0.943941	
7579.855312	0.892004	
7579.857024	0.878726	
7579.858517	0.842012	
7579.860232	0.872020	
7579.861708	0.778309	
7579.863414	0.786361	
7579.864903	0.772125	
7579.866588	0.731560	
7579.868104	0.684682	
7579.869733	0.667413	
7579.871293	0.631968	
7579.872891	0.652488	
7579.874473	0.581199	
7579.876034	0.589477	
7579.877648	0.587870	
7579.879165	0.589195	
7579.880799	0.570105	
7579.882282	0.528976	
7579.883928	0.504496	
7579.885411	0.488120	
7579.887048	0.510256	
7579.888540	0.439398	
7579.890180	0.461489	
7579.891669	0.441070	
7579.893281	0.472817	
7579.894797	0.433988	
7579.896364	0.428832	
7579.897946	0.438729	
7579.899437	0.380975	
7579.901088	0.394611	
7579.902588	0.384440	
7579.904210	0.393101	
7579.905737	0.351303	
7579.907377	0.364709	
7579.908852	0.360793	
7579.910434	0.385922	
7579.911918	0.371134	
7579.913480	0.328530	
7579.915008	0.338207	
7579.916497	0.288912	
7579.918083	0.318387	
7579.919611	0.299269	
7579.921199	0.274587	
7579.922699	0.290382	
7579.924259	0.303152	
7579.925786	0.239094	
7579.927333	0.299007	
7579.928838	0.246212	
7579.930388	0.234912	
7579.931887	0.224753	
7579.933424	0.221965	
7579.934977	0.245467	
7579.936465	0.211045	
7579.938041	0.228846	
7579.939571	0.226646	
7579.941159	0.201336	
7579.942649	0.165218	
7579.944249	0.212599	
7579.945750	0.158652	
7579.947261	0.211214	
7579.948824	0.194230	
7579.950303	0.147079	
7579.951887	0.169903	
7579.953407	0.128275	
7579.955004	0.164920	
7579.956502	0.131433	
7579.958080	0.166604	
7579.959601	0.119815	
7579.961166	0.121987	
7579.962685	0.148428	
7579.964207	0.114441	
7579.965791	0.068067	
7579.967304	0.111634	
7579.968896	0.087480	
7579.970376	0.118244	
7579.971999	0.074666	
7579.973482	0.101527	
7579.975090	0.094062	
7579.976577	0.083713	
7579.978159	0.087778	
7579.979668	0.045368	
7579.981198	0.081349	
7579.982737	0.082726	
7579.984261	0.081780	
7579.985839	0.075471	
7579.987331	0.069848	
7579.988918	0.066847	
7579.990454	0.015035	
7579.992059	0.037871	
7579.993538	0.004871	
7579.995098	0.071705	
7579.996617	0.019345	
7579.998195	0.081715	
7579.999722	-0.001119	
7580.001262	0.063084	
7580.002813	0.005234	
7580.004335	0.062472	
7580.005912	0.072793	
7580.007407	0.022934	
7580.008978	0.053445	
7580.010493	0.019917	
7580.012048	0.034789	
7580.013589	0.049799	
7580.015141	0.031027	
7580.016678	-0.000845	
7580.018207	0.025492	
7580.019755	0.067995	
7580.021279	0.042439	
7580.022860	0.044413	
7580.024355	0.027200	
7580.025954	0.056973	
7580.027445	-0.012584	
7580.029037	0.021593	
7580.030548	0.013488	
7580.032114	0.023599	
7580.033636	-0.007069	
7580.035173	0.021355	
7580.036728	0.000790	
7580.038238	-0.010690	
7580.039803	0.023824	
7580.041325	0.039446	
7580.043061	0.059036	
7580.044606	0.022040	
7580.046296	0.055140	
7580.047866	0.022137	
7580.049539	0.029665	
7580.051107	0.021452	
7580.052772	0.052345	
7580.054357	-0.034941	
7580.055996	0.061924	
7580.057594	0.042189	
7580.059220	0.062154	
7580.060869	0.035313	
7580.062454	0.068196	
7580.064136	0.030902	
7580.065732	0.035938	
7580.067387	-0.006013	
7580.068970	0.051604	
7580.070655	0.017282	
7580.072211	0.041017	
7580.073920	0.027462	
7580.075471	0.046246	
7580.077186	0.032433	
7580.078735	0.040908	
7580.080448	0.056708	
7580.081984	0.025250	
7580.083744	0.021307	
7580.085236	0.000061	
7580.086994	0.014108	
7580.088477	-0.000579	
7580.090194	0.025520	
7580.091677	-0.011081	
7580.093366	0.042000	
7580.094865	-0.017885	
7580.096534	0.033694	
7580.098068	-0.065886	
7580.099699	0.007510	
7580.101263	-0.001095	
7580.102854	-0.013099	
7580.104429	-0.001405	
7580.106007	-0.009405	
7580.107616	0.025951	
7580.109161	-0.003375	
7580.110811	-0.007210	
7580.112295	-0.025857	
7580.114022	0.001358	
7580.115493	-0.016463	
7580.117224	-0.001586	
7580.118695	-0.023424	
7580.120328	-0.010638	
7580.121814	-0.042373	
7580.123453	-0.003850	
7580.124942	-0.061967	
7580.126523	-0.006871	
7580.128075	-0.037797	
7580.129606	-0.029301	
7580.131222	-0.050313	
7580.132710	-0.054559	
7580.134352	-0.036033	
7580.135852	-0.018098	
7580.137509	-0.039396	
7580.138990	-0.065612	
7580.140626	0.001669	
7580.142101	-0.050426	
7580.143736	-0.020479	
7580.145218	-0.047231	
7580.146841	-0.039722	
7580.148333	-0.045491	
7580.149918	-0.070789	
7580.151483	-0.036169	
7580.152972	-0.053580	
7580.154561	-0.080723	
7580.156051	-0.098391	
7580.157627	-0.057088	
7580.159143	-0.092945	
7580.160778	-0.039062	
7580.162251	-0.077500	
7580.163827	-0.065395	
7580.165330	-0.089118	
7580.166883	-0.064589	
7580.168405	-0.094818	
7580.169889	-0.069451	
7580.171492	-0.092078	
7580.172992	-0.087579	
7580.174593	-0.105650	
7580.176093	-0.116534	
7580.177651	-0.082298	
7580.179173	-0.083969	
7580.180755	-0.106435	
7580.182248	-0.098000	
7580.183804	-0.099736	
7580.185340	-0.123902	
7580.186878	-0.115028	
7580.188421	-0.097384	
7580.189914	-0.126343	
7580.191491	-0.111507	
7580.193017	-0.118230	
7580.194627	-0.122271	
7580.196113	-0.127407	
7580.197663	-0.109521	
7580.199198	-0.108691	
7580.200736	-0.114355	
7580.202288	-0.120333	
7580.203802	-0.138960	
7580.205384	-0.128225	
7580.206877	-0.135609	
7580.208441	-0.146964	
7580.209970	-0.153442	
7580.211545	-0.153607	
7580.213054	-0.171005	
7580.214600	-0.180536	
7580.216134	-0.192839	
7580.217687	-0.157071	
7580.219224	-0.205621	
7580.220751	-0.174852	
7580.222310	-0.245231	
7580.223804	-0.197556	
7580.225406	-0.217561	
7580.226894	-0.231769	
7580.228506	-0.197588	
7580.229997	-0.280765	
7580.231568	-0.220670	
7580.233090	-0.281671	
7580.234599	-0.271282	
7580.236163	-0.251676	
7580.237640	-0.302647	
7580.239262	-0.309962	
7580.240745	-0.323187	
7580.242342	-0.290888	
7580.243832	-0.319650	
7580.245425	-0.309088	
7580.246934	-0.346463	
7580.248489	-0.346737	
7580.250014	-0.409832	
7580.251576	-0.395697	
7580.253114	-0.433330	
7580.254627	-0.430320	
7580.256199	-0.422513	
7580.257725	-0.463046	
7580.259312	-0.469101	
7580.260796	-0.472465	
7580.262373	-0.497050	
7580.263895	-0.507314	
7580.265453	-0.535266	
7580.266974	-0.579852	
7580.268530	-0.549345	
7580.270069	-0.577241	
7580.271580	-0.601673	
7580.273146	-0.609150	
7580.274659	-0.642657	
7580.276255	-0.673615	
7580.277734	-0.690767	
7580.279327	-0.679053	
7580.280841	-0.734648	
7580.282438	-0.745106	
7580.283929	-0.782665	
7580.285487	-0.791016	
7580.287014	-0.821636	
7580.288556	-0.841278	
7580.290311	-0.839102	
7580.291790	-0.872155	
7580.293569	-0.863977	
7580.295047	-0.937696	
7580.296823	-0.914609	
7580.298303	-0.946832	
7580.300078	-0.996130	
7580.301571	-1.030073	
7580.303325	-1.043439	
7580.304834	-1.082755	
7580.306599	-1.082562	
7580.308120	-1.180237	
7580.309853	-1.134676	
7580.311375	-1.243014	
7580.313070	-1.208689	
7580.314607	-1.294681	
7580.316298	-1.282052	
7580.317857	-1.321119	
7580.319550	-1.328785	
7580.321107	-1.431426	
7580.322764	-1.414600	
7580.324339	-1.497785	
7580.325991	-1.491863	
7580.327576	-1.553340	
7580.329191	-1.581204	
7580.330840	-1.615775	
7580.332439	-1.618151	
7580.334103	-1.617930	
7580.335578	-1.618075	
7580.337292	-1.617378	
7580.338774	-1.618199	
7580.340489	-1.618151	
7580.341976	-1.618353	
7580.343691	-1.618208	
7580.345173	-1.618361	
7580.346883	-1.618240	
7580.348365	-1.618300	
7580.350064	-1.618312	
7580.351553	-1.618389	
7580.353222	-1.618300	
7580.354730	-1.618437	
7580.356373	-1.618292	
7580.357936	-1.618417	
7580.359526	-1.618248	
7580.361117	-1.618373	
7580.362691	-1.618333	
7580.364315	-1.618381	
7580.365822	-1.618256	
7580.367465	-1.618522	
7580.368938	-1.618341	
7580.370568	-1.618316	
7580.372047	-1.618490	
7580.373696	-1.618425	
7580.375183	-1.618377	
7580.376814	-1.618308	
7580.378320	-1.618325	
7580.379920	-1.618393	
7580.381441	-1.618389	
7580.383001	-1.618381	
7580.384581	-1.618437	
7580.386068	-1.618333	
7580.387739	-1.618461	
7580.389235	-1.618453	
7580.390852	-1.618308	
7580.392381	-1.618405	
7580.394016	-1.618337	
7580.395504	-1.618425	
7580.397081	-1.618292	
7580.398572	-1.618465	
7580.400149	-1.618377	
7580.401654	-1.618413	
7580.403157	-1.618381	
7580.404721	-1.618385	
7580.406235	-1.618433	
7580.407836	-1.618425	
7580.409334	-1.618477	
7580.410908	-1.618510	
7580.412428	-1.618421	
7580.414002	-1.618486	
7580.415502	-1.618401	
7580.417047	-1.618445	
7580.418574	-1.618522	
7580.420125	-1.618478	
7580.421665	-1.618433	
7580.423149	-1.618437	
7580.424702	-1.618417	
7580.426230	-1.618433	
7580.427827	-1.618574	
7580.429327	-1.618506	
7580.430842	-1.618445	
7580.432416	-1.618474	
7580.433927	-1.618373	
7580.435505	-1.618498	
7580.437001	-1.618461	
7580.438615	-1.618441	
7580.440094	-1.618361	
7580.441699	-1.618461	
7580.443191	-1.618514	
7580.444783	-1.618498	
7580.446281	-1.618465	
7580.447851	-1.618518	
7580.449374	-1.618421	
7580.450949	-1.618389	
7580.452476	-1.618498	
7580.453998	-1.618465	
7580.455580	-1.618502	
7580.457086	-1.618429	
7580.458694	-1.618441	
7580.460181	-1.618437	
7580.461762	-1.618478	
7580.463253	-1.618498	
7580.464819	-1.618469	
7580.466344	-1.618474	
7580.467902	-1.618469	
7580.469430	-1.618417	
7580.470945	-1.618482	
7580.472504	-1.618369	
7580.474015	-1.618393	
7580.475599	-1.618550	
7580.477086	-1.618429	
7580.478663	-1.618566	
7580.480189	-1.618510	
7580.481758	-1.618397	
7580.483269	-1.618405	
7580.484798	-1.618401	
7580.486364	-1.618425	
7580.487888	-1.618429	
7580.489440	-1.618429	
7580.490937	-1.618437	
7580.492545	-1.618361	
7580.494026	-1.618413	
7580.495630	-1.618393	
7580.497126	-1.618433	
7580.498701	-1.618437	
7580.500209	-1.618429	
7580.501716	-1.618328	
7580.503274	-1.618409	
7580.504795	-1.618409	
7580.506384	-1.618333	
7580.507874	-1.618514	
7580.509458	-1.618365	
7580.510981	-1.618397	
7580.512577	-1.618385	
7580.514065	-1.618328	
7580.515750	-1.618333	
7580.517415	-1.618393	
7580.519022	-1.618272	
7580.520679	-1.618409	
7580.522267	-1.618276	
7580.523934	-1.618369	
7580.525510	-1.618312	
7580.527220	-1.618381	
7580.528772	-1.618369	
7580.530462	-1.618308	
7580.531993	-1.618389	
7580.533716	-1.618340	
7580.535232	-1.618308	
7580.536982	-1.618353	
7580.538468	-1.618385	
7580.540231	-1.618264	
7580.541713	-1.618405	
7580.543505	-1.618296	
7580.544982	-1.618337	
7580.546739	-1.618365	
7580.548222	-1.618304	
7580.549982	-1.618034	
7580.551485	-1.618304	
7580.553237	-1.618196	
7580.554755	-1.618103	
7580.556504	-1.617164	
7580.558029	-1.610365	
7580.559742	-1.440099	
7580.561275	-1.355859	
7580.562984	-1.210477	
7580.564531	-1.149436	
7580.566228	-0.961503	
7580.567810	-0.951851	
7580.569398	-0.773356	
7580.570986	-0.674034	
7580.572541	-0.577894	
7580.574185	-0.452456	
7580.575683	-0.361529	
7580.577379	-0.207160	
7580.578862	-0.185254	
7580.580604	-0.034131	
7580.582074	0.016984	
7580.583803	0.173013	
7580.585287	0.233688	
7580.587002	0.366558	
7580.588486	0.473808	
7580.590183	0.575007	
7580.591668	0.636528	
7580.593367	0.797213	
7580.594870	0.832381	
7580.596531	0.997405	
7580.598059	1.057101	
7580.599612	1.170957	
7580.601198	1.254146	
7580.602690	1.359523	
7580.604332	1.469818	
7580.605829	1.554836	
7580.607482	1.628107	
7580.608979	1.635221	
7580.610604	1.635450	
7580.612097	1.635370	
7580.613737	1.635471	
7580.615216	1.635539	
7580.616866	1.635588	
7580.618350	1.635382	
7580.619972	1.635547	
7580.621462	1.635410	
7580.623048	1.635652	
7580.624589	1.635394	
7580.626093	1.635519	
7580.627737	1.635608	
7580.629225	1.635511	
7580.630858	1.635511	
7580.632368	1.635511	
7580.634013	1.635519	
7580.635486	1.635567	
7580.637076	1.635503	
7580.638559	1.635527	
7580.640126	1.635563	
7580.641642	1.635463	
7580.643139	1.635507	
7580.644733	1.635628	
7580.646243	1.635487	
7580.647838	1.635511	
7580.649333	1.635543	
7580.650893	1.635459	
7580.652419	1.635519	
7580.653984	1.635587	
7580.655496	1.635519	
7580.657070	1.635551	
7580.658565	1.635555	
7580.660130	1.635563	
7580.661639	1.635624	
7580.663127	1.635616	
7580.664696	1.635696	
7580.666227	1.635438	
7580.667798	1.635535	
7580.669330	1.635571	
7580.670857	1.635434	
7580.672430	1.635479	
7580.673947	1.635640	
7580.675515	1.635467	
7580.677039	1.635608	
7580.678614	1.635499	
7580.680105	1.635616	
7580.681681	1.635511	
7580.683202	1.635575	
7580.684794	1.635567	
7580.686289	1.635523	
7580.687858	1.635563	
7580.689402	1.635567	
7580.690905	1.635467	
7580.692468	1.635442	
7580.693972	1.635446	
7580.695575	1.635479	
7580.697062	1.635402	
7580.698634	1.635599	
7580.700159	1.635511	
7580.701741	1.635555	
7580.703232	1.635463	
7580.704798	1.635608	
7580.706322	1.635459	
7580.707892	1.635624	
7580.709407	1.635479	
7580.710927	1.635644	
7580.712493	1.635608	
7580.714014	1.635491	
7580.715618	1.635628	
7580.717105	1.635515	
7580.718658	1.635584	
7580.720175	1.635584	
7580.721747	1.635640	
7580.723271	1.635579	
7580.724801	1.635467	
7580.726378	1.635523	
7580.727895	1.635543	
7580.729462	1.635563	
7580.730973	1.635644	
7580.732565	1.635467	
7580.734050	1.635519	
7580.735624	1.635499	
7580.737151	1.635571	
7580.738761	1.635483	
7580.740238	1.635575	
7580.741809	1.635555	
7580.743331	1.635418	
7580.744866	1.635499	
7580.746444	1.635511	
7580.747938	1.635571	
7580.749717	1.635720	
7580.751258	1.635604	
7580.752939	1.635668	
7580.754485	1.635628	
7580.756174	1.635604	
7580.757741	1.635579	
7580.759415	1.635753	
7580.760998	1.635422	
7580.762644	1.635696	
7580.764260	1.635394	
7580.765897	1.635676	
7580.767514	1.635584	
7580.769149	1.635785	
7580.770776	1.635483	
7580.772387	1.635559	
7580.774045	1.635507	
7580.775621	1.635708	
7580.777309	1.635523	
7580.778882	1.635628	
7580.780579	1.635620	
7580.782164	1.635696	
7580.783852	1.635531	
7580.785404	1.635515	
7580.787103	1.635523	
7580.788639	1.635644	
7580.790350	1.635467	
7580.791842	1.635692	
7580.793612	1.635507	
7580.795093	1.635479	
7580.796873	1.635507	
7580.798357	1.635624	
7580.800148	1.635676	
7580.801629	1.635600	
7580.803400	1.635688	
7580.804884	1.635599	
7580.806655	1.635656	
7580.808147	1.635491	
7580.809827	1.635652	
7580.811350	1.635414	
7580.812981	1.635571	
7580.814536	1.635414	
7580.816127	1.635612	
7580.817725	1.635366	
7580.819307	1.635571	
7580.820918	1.635507	
7580.822466	1.635688	
7580.824141	1.635438	
7580.825634	1.635632	
7580.827322	1.635378	
7580.828809	1.635422	
7580.830528	1.635475	
7580.831997	1.635463	
7580.833708	1.635515	
7580.835190	1.635362	
7580.836884	1.635362	
7580.838362	1.635136	
7580.839990	1.635531	
7580.841501	1.634697	
7580.843083	1.635185	
7580.844632	1.595965	
7580.846157	1.525880	
7580.847768	1.503793	
7580.849256	1.461028	
7580.850902	1.405828	
7580.852422	1.356924	
7580.854076	1.344090	
7580.855554	1.284068	
7580.857196	1.277663	
7580.858670	1.217142	
7580.860309	1.204618	
7580.861800	1.121139	
7580.863428	1.169934	
7580.864928	1.118029	
7580.866510	1.105839	
7580.868044	1.042921	
7580.869591	1.041112	
7580.871187	0.993147	
7580.872687	0.967543	
7580.874348	0.957923	
7580.875844	0.944368	
7580.877436	0.885144	
7580.878936	0.842460	
7580.880479	0.882308	
7580.882019	0.850963	
7580.883547	0.829061	
7580.885087	0.806273	
7580.886605	0.793431	
7580.888187	0.781587	
7580.889675	0.715845	
7580.891249	0.754707	
7580.892772	0.712365	
7580.894366	0.734565	
7580.895856	0.677238	
7580.897445	0.687784	
7580.898936	0.679200	
