time (s)	magX	magY	magZ
7579.563722	-186.940399	-37.904736	1255.392700
7579.567254	-168.004089	-48.074226	1264.510254
7579.570590	-148.424896	-58.419052	1272.926270
7579.573929	-129.313263	-67.653419	1279.647583
7579.577259	-109.675636	-76.770897	1285.784302
7579.580589	-89.511978	-85.946815	1290.927490
7579.583926	-69.699005	-94.830513	1294.083618
7579.587257	-49.886032	-104.357094	1297.181152
7579.590592	-29.488605	-113.065453	1298.642334
7579.593938	-9.967857	-123.118057	1297.999390
7579.597258	10.721798	-131.066635	1297.648682
7579.600589	31.177673	-140.359436	1295.193970
7579.603923	50.581528	-149.243134	1291.336548
7579.607687	69.693161	-157.250153	1288.239014
7579.611021	88.687897	-166.601410	1282.102295
7579.614365	106.922852	-175.368210	1276.199341
7579.617709	125.040909	-183.316772	1268.601440
7579.621065	142.165405	-191.849792	1259.717651
7579.624343	160.108124	-200.499710	1251.652222
7579.627685	176.881958	-208.097610	1240.898315
7579.631020	193.071320	-216.046173	1229.735229
7579.634339	208.968445	-223.527176	1218.163086
7579.638136	223.930450	-230.365280	1206.415527
7579.641454	239.243134	-237.320282	1192.271729
7579.644856	253.912933	-244.567505	1178.361816
7579.648170	267.180023	-250.470490	1162.464600
7579.651472	280.271759	-256.198120	1146.976685
7579.654753	292.603729	-261.925781	1130.319702
7579.658089	304.935699	-267.478088	1114.013428
7579.661466	317.326111	-272.504395	1095.544678
7579.664781	328.196960	-276.186462	1077.835693
7579.668172	339.769135	-280.336060	1060.185181
7579.671529	350.406189	-283.901215	1041.015259
7579.675320	360.517242	-286.765076	1021.786621
7579.678668	370.160706	-288.985962	1002.265869
7579.682005	379.395081	-291.499115	982.745117
7579.685360	387.635864	-292.784912	962.815247
7579.688660	395.701324	-294.070740	941.132019
7579.691940	403.474548	-294.655151	921.611267
7579.695273	410.488007	-295.239624	902.207458
7579.698620	416.741669	-295.531860	882.219177
7579.702413	422.703094	-295.648743	862.230835
7579.705737	428.196960	-295.707184	842.300964
7579.709039	433.106354	-294.888947	822.663391
7579.712348	438.132690	-293.369385	803.610168
7579.715629	442.282257	-292.843384	784.440063
7579.718924	445.789032	-291.440674	765.328491
7579.722369	449.003510	-290.096436	746.450562
7579.725659	451.107513	-288.518402	728.040344
7579.729408	452.685547	-287.057251	711.149597
7579.732718	454.672699	-285.537720	693.206909
7579.735995	455.257141	-284.719452	675.790161
7579.739379	456.659851	-282.557007	659.776123
7579.742659	457.361176	-281.563416	642.067200
7579.746033	457.302734	-279.751587	626.170044
7579.749321	456.952057	-278.232025	610.272949
7579.753103	457.127380	-276.829346	595.018677
7579.756420	455.374023	-275.952667	579.764404
7579.759721	455.081818	-274.433075	565.153076
7579.763017	453.445343	-272.329041	550.132690
7579.766338	450.990631	-271.744598	536.398010
7579.769663	450.347717	-269.932770	522.078857
7579.772960	447.893005	-268.296326	507.993622
7579.776369	445.379883	-267.185852	494.551117
7579.780093	442.925171	-265.315613	480.348907
7579.783412	441.288727	-263.620697	468.250732
7579.786730	439.243134	-261.808868	454.457672
7579.790020	435.561066	-259.938629	442.417908
7579.793438	432.814148	-257.659241	430.728821
7579.796744	430.184082	-255.146118	418.455292
7579.800049	428.021606	-252.983643	406.473999
7579.803365	425.274658	-251.405609	395.135590
7579.807167	421.826416	-248.366455	384.206299
7579.810567	419.254822	-246.087082	374.212158
7579.813904	416.507874	-243.573944	363.808899
7579.817234	413.585602	-240.826996	353.522522
7579.820569	410.780243	-238.138519	344.405060
7579.823898	407.741089	-236.034470	334.644653
7579.827230	404.351257	-233.229095	325.527191
7579.830569	401.838104	-230.248383	316.994171
7579.833903	399.266510	-228.436600	308.285797
7579.837239	396.461121	-225.981888	299.460571
7579.840568	393.714203	-223.176514	291.804199
7579.844344	390.090576	-220.020447	284.440094
7579.847658	387.752777	-217.799530	277.309753
7579.850987	384.596710	-215.520157	270.705444
7579.854358	381.499115	-212.831680	263.399780
7579.857663	378.810638	-210.260086	256.561676
7579.860983	376.531250	-208.974274	250.658676
7579.864315	373.375214	-205.701340	245.398605
7579.867668	370.160706	-203.889542	239.554047
7579.871011	367.530670	-202.077728	233.943298
7579.874334	364.608398	-199.623016	228.858566
7579.878148	361.978363	-197.694336	223.014023
7579.881427	359.406769	-195.648758	218.104599
7579.884737	356.075409	-194.304504	214.188766
7579.888075	353.386902	-193.544708	209.454697
7579.891431	351.282867	-191.557556	205.188187
7579.894757	348.360596	-190.447098	199.577423
7579.898176	345.613647	-188.810638	195.369370
7579.901496	343.100525	-187.700180	191.395096
7579.904816	339.593811	-185.654587	187.362350
7579.908503	337.781982	-184.836349	183.095856
7579.911864	334.976624	-183.082993	179.238449
7579.915289	333.340149	-182.147873	175.673279
7579.918625	330.125671	-180.569839	172.400345
7579.921944	327.144928	-179.751602	168.601395
7579.925326	325.040894	-177.530685	165.211578
7579.928618	322.586182	-176.537125	161.471069
7579.931926	320.715942	-174.725311	158.724136
7579.935306	318.728790	-173.965530	156.210983
7579.938619	315.864990	-172.738174	152.412033
7579.941959	314.170074	-171.277039	149.372879
7579.945704	311.832245	-169.699005	146.099945
7579.949107	310.429565	-167.828766	143.119232
7579.952385	308.793091	-166.192291	140.839859
7579.955704	306.572174	-165.315598	138.151367
7579.959053	305.812378	-164.146698	135.988892
7579.962343	303.591461	-162.510223	134.060196
7579.965707	302.714783	-161.399765	131.079483
7579.969074	300.961426	-159.997086	129.910583
7579.972367	298.798920	-158.711273	127.163643
7579.975738	297.454712	-157.483932	126.228523
7579.979487	296.694916	-156.198135	123.540047
7579.982828	294.883087	-154.795441	122.195793
7579.986164	294.240204	-154.386322	121.260658
7579.989488	293.071289	-152.983643	119.331978
7579.992864	291.785492	-152.340729	117.637062
7579.996149	291.025696	-151.756287	117.286385
7579.999505	290.090576	-150.470474	115.649910
7580.002785	289.038544	-150.002914	114.247223
7580.006563	288.629456	-149.126236	113.019867
7580.009866	287.109863	-148.717133	112.727654
7580.013167	287.343658	-147.606674	111.091179
7580.016518	286.642303	-147.197540	110.156059
7580.019835	285.648743	-147.372894	109.279366
7580.023242	284.888947	-146.437759	107.935127
7580.026586	284.304504	-146.028641	108.402687
7580.029891	284.070740	-145.385742	107.000000
7580.033241	283.018707	-145.385742	106.707771
7580.036560	282.375824	-145.911743	106.298660
7580.040375	281.440674	-145.444183	106.123322
7580.043884	281.206879	-145.210403	105.071304
7580.047206	280.973114	-144.976624	104.369957
7580.050545	279.687317	-144.509064	103.551727
7580.053889	279.921112	-144.918182	103.551727
7580.057201	279.395081	-144.684402	103.201050
7580.060611	279.336639	-144.392166	102.265930
7580.063888	278.985962	-144.041504	101.739914
7580.067211	278.985962	-144.041504	101.097023
7580.070541	278.693756	-143.457047	100.687904
7580.073873	278.752197	-143.457047	100.804787
7580.077206	278.343079	-142.814148	101.097023
7580.080540	278.576843	-142.638809	100.804787
7580.083872	278.927521	-142.171249	100.103447
7580.087626	279.102875	-142.288132	100.045013
7580.090963	278.752197	-141.703690	100.512573
7580.094299	279.453552	-141.995911	100.571007
7580.097653	280.037994	-141.820572	100.687904
7580.100984	281.265320	-141.703690	101.038574
7580.104323	281.206879	-141.294556	101.389252
7580.107653	281.616028	-141.002350	102.558159
7580.110988	282.551147	-140.943893	102.558159
7580.114330	283.427795	-141.236130	102.850388
7580.118054	284.129150	-141.119232	103.551727
7580.121393	284.888947	-141.411453	104.720634
7580.124741	285.239624	-141.236130	105.129753
7580.128107	286.817627	-141.236130	106.824669
7580.131483	287.694336	-141.353012	107.584465
7580.134802	288.921692	-141.762115	108.753365
7580.138105	290.032135	-141.879013	110.448273
7580.141374	291.201050	-141.820572	110.740501
7580.144715	291.493256	-142.405029	112.318527
7580.148074	293.421967	-143.340149	113.312096
7580.151884	294.766205	-143.223267	114.890121
7580.155227	295.642883	-144.158386	116.059044
7580.158177	296.694916	-144.742844	117.403282
7580.161805	298.506714	-145.268860	119.448860
7580.165174	299.792511	-145.794861	120.267097
7580.168538	301.019836	-146.846878	121.669792
7580.171934	302.130341	-147.606674	123.247810
7580.175289	303.825256	-148.424896	125.468742
7580.178583	305.111053	-148.424896	127.046761
7580.181896	307.039734	-149.301575	128.975449
7580.185331	308.676208	-149.886032	130.787247
7580.188700	309.903564	-151.171829	132.832840
7580.192010	311.773804	-151.814728	135.345993
7580.195738	313.293365	-152.340729	137.450027
7580.199057	315.105194	-152.983643	139.378708
7580.202347	317.033875	-153.743439	142.008759
7580.205686	318.611938	-154.210999	143.469894
7580.209088	320.891266	-154.737000	146.216827
7580.212383	322.819977	-155.555237	148.087067
7580.215705	324.865570	-156.490356	151.243134
7580.219065	327.437164	-156.490356	154.165405
7580.222427	329.248962	-156.957916	157.263000
7580.225810	331.703674	-158.009933	159.367020
7580.229169	334.392151	-157.951492	161.237289
7580.232935	336.379303	-158.302155	165.211578
7580.236300	339.476898	-158.535950	169.244293
7580.239634	341.464050	-159.821747	171.757446
7580.242939	345.087677	-160.698425	176.374634
7580.246282	347.717712	-161.107544	178.946228
7580.249553	349.997070	-161.341324	183.914078
7580.252939	352.627106	-162.568680	186.777908
7580.256253	355.666260	-163.445358	191.278198
7580.259600	358.705414	-163.620697	196.187592
7580.263334	362.562805	-164.906494	200.629456
7580.266604	365.251312	-165.958511	205.480408
7580.269938	368.290466	-166.718292	210.156036
7580.273215	371.388062	-168.004089	216.409714
7580.276643	374.310333	-169.173004	221.202209
7580.279936	378.109283	-170.108124	226.403854
7580.283250	381.499115	-170.926361	231.897720
7580.287036	385.064270	-172.679718	236.807129
7580.290523	387.928101	-173.731735	243.937454
7580.293854	391.610168	-175.485092	249.781998
7580.297183	395.116882	-176.244888	256.327881
7580.300518	398.565155	-177.822906	263.282898
7580.303848	401.954987	-179.576279	269.185883
7580.307182	404.935699	-180.452957	276.316193
7580.310518	408.500885	-182.849213	283.388092
7580.313872	411.890686	-183.550552	291.511993
7580.317184	415.105194	-184.777908	298.876099
7580.320515	419.547058	-185.654587	306.123322
7580.323847	422.819977	-186.998825	312.610748
7580.327184	425.976044	-188.343063	321.436005
7580.330537	429.541168	-189.161316	328.858582
7580.334283	433.457062	-189.570419	338.502075
7580.337624	437.022186	-191.206894	346.859741
7580.340930	440.236694	-191.732910	355.451233
7580.344274	444.327850	-193.310944	364.510254
7580.347602	447.776154	-193.310944	373.627716
7580.350940	452.276428	-193.603165	383.972534
7580.354272	455.432465	-194.479828	392.914673
7580.357647	459.348328	-194.830505	403.142639
7580.360963	462.212158	-194.713623	412.902954
7580.364826	466.303314	-195.005859	423.598480
7580.368059	469.810028	-195.473419	435.346039
7580.371357	473.375183	-195.590286	446.509064
7580.374691	476.998810	-195.239624	458.724152
7580.378052	480.447113	-195.005859	471.815918
7580.381388	484.129150	-194.888962	483.797211
7580.384784	486.700745	-194.538300	496.947418
7580.388146	489.739899	-194.947388	510.039154
7580.391483	492.895966	-194.070724	524.475159
7580.395120	495.292206	-194.246063	537.625305
7580.398496	497.863831	-193.544708	552.295105
7580.401898	500.201630	-192.960251	567.198730
7580.405202	502.714783	-192.784912	581.810059
7580.408572	503.942139	-192.200485	596.947388
7580.411871	505.111053	-192.083588	612.902954
7580.415169	508.208618	-191.616028	628.507874
7580.418539	510.254211	-190.914658	644.638794
7580.421910	510.780243	-190.563995	660.886597
7580.425221	510.546448	-189.628876	678.829285
7580.428969	510.604919	-188.401520	695.486206
7580.432346	510.663330	-187.641724	711.734070
7580.435616	510.137329	-187.057281	727.455872
7580.438981	508.968414	-185.070129	745.457031
7580.442331	508.150208	-183.667450	763.399780
7580.445607	505.695496	-182.206314	779.705994
7580.448936	503.474579	-179.985382	797.356445
7580.452261	501.312073	-178.407364	814.481018
7580.456027	498.565155	-175.485092	830.904175
7580.459319	495.526001	-172.621277	848.788391
7580.462598	491.668610	-169.173004	865.912903
7580.465939	488.278778	-165.724731	882.862061
7580.469307	484.012299	-162.276443	900.044983
7580.472606	480.622437	-158.652832	916.526550
7580.475954	475.245453	-154.269424	933.241882
7580.479659	470.745148	-149.710693	951.067810
7580.482952	464.959076	-144.859726	966.029785
7580.486296	459.172974	-139.658096	983.212708
7580.489575	452.159576	-134.398010	998.174744
7580.492936	445.087646	-128.378143	1014.305664
7580.496283	437.022186	-122.533600	1029.501343
7580.499995	429.132080	-115.987724	1045.223145
7580.503353	421.125061	-108.565170	1060.828125
7580.506697	411.656921	-101.610168	1074.329102
7580.510010	401.487427	-95.005844	1088.881958
7580.513408	391.610168	-86.998833	1103.084106
7580.517162	380.096436	-79.634720	1115.416138
7580.520498	367.998230	-72.329048	1127.864990
7580.523831	357.010529	-63.854469	1141.248901
7580.527164	343.334320	-56.139687	1152.996460
7580.530527	330.476318	-47.548222	1163.808838
7580.533824	316.332550	-39.190533	1172.984741
7580.537162	302.831665	-31.183521	1183.388062
7580.540492	287.635864	-23.293396	1192.505493
7580.543828	271.914062	-14.526591	1202.148926
7580.547157	257.536530	-5.818234	1208.578003
7580.550494	240.938049	2.773232	1215.416138
7580.553821	225.040924	11.773817	1222.838623
7580.557158	207.799530	20.482174	1227.572754
7580.560495	190.675049	28.722969	1231.605469
7580.563822	173.784332	37.606663	1235.696655
7580.567608	155.724731	46.081238	1237.917603
7580.570941	138.658676	54.731152	1240.138550
7580.574363	120.774399	63.907070	1240.956787
7580.577579	103.007011	72.790764	1239.729370
7580.580919	86.057861	81.265335	1238.326660
7580.584255	69.342491	90.207481	1236.105835
7580.587581	51.808884	98.974281	1234.235474
7580.590912	35.268848	108.150208	1229.735229
7580.594253	16.800116	117.267685	1225.585571
7580.598041	0.376972	126.092926	1220.559326
7580.601400	-15.987728	136.145523	1215.357666
7580.604757	-31.300407	144.737000	1208.636475
7580.608124	-47.431328	153.562241	1201.155396
7580.611354	-63.679138	161.861481	1193.557495
7580.614662	-78.465805	171.212738	1183.738770
7580.618036	-93.720047	179.336639	1175.556274
7580.621352	-109.208076	188.512573	1164.218018
7580.624695	-123.001167	197.045593	1154.691406
7580.628078	-137.028046	205.520172	1141.891846
7580.631402	-151.464050	213.293396	1130.085937
7580.635094	-165.023376	221.183533	1117.520142
7580.638440	-178.290466	228.839859	1104.369995
7580.641867	-191.382233	235.794846	1091.219727
7580.645188	-204.357086	242.048523	1077.017578
7580.648514	-215.870850	249.061951	1063.166016
7580.651887	-228.085937	255.198700	1047.151855
7580.655211	-240.008759	260.108124	1032.715942
7580.658518	-250.879608	265.777313	1016.994141
7580.661899	-262.393341	271.212738	1002.265869
7580.665634	-273.030396	275.303925	986.777832
7580.668932	-282.381653	279.511993	970.471619
7580.672249	-294.012299	283.077148	954.749817
7580.675581	-302.837524	286.817657	937.683838
7580.678947	-311.779663	290.090607	922.780212
7580.682280	-320.663361	291.960846	906.590881
7580.685550	-328.144379	294.415527	889.349487
7580.689322	-336.560486	296.110443	873.335449
7580.692576	-344.158386	297.980713	856.620056
7580.695921	-350.879608	299.091156	840.606079
7580.699222	-357.425476	300.201660	825.176514
7580.702549	-362.977814	301.312103	808.636414
7580.705895	-368.997681	301.779663	793.090027
7580.709205	-373.848602	303.065460	777.601990
7580.712993	-377.881378	303.474579	761.821716
7580.716311	-382.206329	303.007019	747.561035
7580.719585	-385.479248	303.357697	731.956177
7580.722923	-389.453552	302.656342	716.409668
7580.726292	-392.492706	303.357697	702.499695
7580.729574	-394.713623	302.890137	688.765015
7580.732928	-396.057861	303.065460	674.328979
7580.736210	-397.869659	301.896576	660.068359
7580.739578	-399.447723	302.071899	646.509033
7580.743338	-401.493286	301.195221	633.183472
7580.746786	-401.551758	301.195221	619.507263
7580.750471	-402.662201	299.967865	606.473999
7580.753825	-402.545288	299.324951	592.856201
7580.757136	-402.720642	298.506714	580.231995
7580.760470	-402.486877	297.980713	566.672668
7580.763802	-401.785492	296.870239	553.990051
7580.767134	-402.369965	295.175323	541.541199
7580.770485	-401.259491	293.655762	529.267639
7580.773812	-400.149048	292.019287	517.052551
7580.777141	-399.856842	290.908813	504.895966
7580.780465	-398.804779	289.038574	493.557587
7580.783803	-397.519012	287.285217	481.868500
7580.787138	-396.291656	285.356506	470.822327
7580.790466	-395.239624	283.194031	458.490356
7580.793805	-393.836975	280.797791	447.502655
7580.797138	-392.668030	278.226166	437.216278
7580.800467	-390.739319	276.063690	427.280548
7580.803803	-388.810669	273.609009	417.578644
7580.807549	-387.524841	270.336060	407.292206
7580.810895	-385.946838	268.465820	397.531891
7580.814261	-383.842773	265.543549	387.713043
7580.817581	-382.031006	262.913513	379.939819
7580.820915	-380.978943	260.517242	370.121002
7580.824308	-378.758026	258.121002	362.289337
7580.827554	-377.530701	254.789612	353.288727
7580.830896	-375.368195	252.334900	346.099945
7580.834224	-373.790192	249.704849	337.274719
7580.837981	-371.043274	247.425476	330.611938
7580.841348	-369.523682	244.912323	323.014038
7580.844675	-367.185852	242.048523	315.883698
7580.848057	-364.906494	239.535370	309.279388
7580.851383	-362.276428	237.431320	302.850372
7580.854666	-359.997101	234.976624	296.187622
7580.857969	-358.009949	232.931030	289.933960
7580.861307	-355.905914	231.119217	283.972534
7580.864667	-353.100525	228.430740	278.712463
7580.867996	-351.113403	226.268265	272.166565
7580.871386	-349.009369	224.631805	265.737610
7580.875156	-346.203979	222.586212	261.295746
7580.878512	-344.333740	221.008179	257.029236
7580.881870	-341.703674	219.196381	250.775558
7580.885163	-339.541199	217.735229	246.801285
7580.888511	-337.086517	215.689651	241.774994
7580.891857	-334.339569	213.877853	237.625366
7580.895182	-332.644653	212.416718	233.125061
7580.898479	-329.371735	210.604919	228.975433
7580.901829	-326.800110	209.260666	224.533600
7580.905592	-324.871429	207.215073	220.033310
7580.908905	-323.001190	205.637054	216.292816
7580.912215	-320.078918	204.117477	211.441849
7580.915505	-318.676208	202.364120	207.642883
7580.918826	-316.455292	201.253662	203.960831
7580.922110	-314.701935	198.915848	199.986557
7580.925447	-312.597900	196.928696	196.421387
7580.929177	-310.610748	195.409119	192.914658
7580.932519	-308.506744	193.772659	189.933945
7580.935857	-306.578033	192.019287	186.836349
7580.939215	-305.467560	189.798355	182.978958
7580.942512	-303.363556	187.869675	179.355347
7580.945802	-301.843964	185.707184	176.374634
7580.949169	-300.207489	184.304504	173.686142
7580.952917	-298.278809	182.726486	171.406769
7580.955859	-296.934540	180.096436	169.185852
7580.959611	-295.122742	178.985962	165.386902
7580.962909	-294.304504	178.050842	162.873764
7580.966226	-292.726471	176.355942	160.945053
7580.969527	-290.973114	174.777908	158.899460
7580.972944	-289.511993	173.842773	155.684967
7580.976281	-288.869080	172.147858	154.866745
7580.979572	-287.174194	171.621857	153.405609
7580.982899	-285.420807	169.576263	151.009354
7580.986638	-284.544128	169.284042	149.314423
7580.989972	-283.433685	168.232025	147.677963
7580.993359	-282.557007	166.770889	145.106369
