time (s)	magX	magY	magZ
4359.044592	-10.129749	-467.772064	-651.908264
4359.047916	-8.317944	-467.596710	-670.961426
4359.051170	-6.623028	-467.538269	-690.774414
4359.054501	-4.577438	-466.018677	-710.353638
4359.057842	-2.882526	-465.317352	-730.926392
4359.061188	-1.070721	-462.044373	-750.680908
4359.064569	1.383984	-459.122131	-771.195251
4359.067928	4.598480	-456.667419	-791.534180
4359.071269	6.877848	-452.576263	-811.697876
4359.074922	9.975452	-446.848633	-832.504395
4359.078290	13.423729	-441.530090	-852.901794
4359.081665	15.761543	-435.919342	-871.078369
4359.085005	19.911163	-429.139648	-890.715942
4359.088378	23.008766	-422.184662	-909.067749
4359.091705	25.814144	-413.242523	-928.822388
4359.094994	28.736412	-405.001740	-946.005310
4359.098343	32.184689	-396.118073	-963.538879
4359.101713	36.042080	-386.416138	-979.377625
4359.105035	38.905903	-376.188171	-995.800720
4359.108392	41.185272	-365.609589	-1011.697815
4359.112153	43.172413	-355.206299	-1025.666260
4359.115491	44.984219	-342.874329	-1040.277588
4359.118779	46.679134	-331.419037	-1052.317383
4359.122153	48.081821	-319.028625	-1065.584473
4359.125465	49.542957	-305.703094	-1076.981323
4359.128781	50.478081	-291.793091	-1087.910645
4359.132136	51.296318	-278.175323	-1099.482788
4359.135425	52.406776	-264.265320	-1109.535400
4359.138824	52.757450	-249.946228	-1117.659302
4359.142124	53.458794	-234.984222	-1124.672729
4359.145906	53.867912	-219.379318	-1132.913574
4359.149165	53.809467	-203.832855	-1138.232056
4359.152506	54.744595	-187.701935	-1142.907715
4359.155822	55.036819	-169.700760	-1147.933960
4359.159146	55.387493	-152.050262	-1151.499146
4359.162502	55.971947	-134.633545	-1153.427856
4359.165785	57.023964	-116.164818	-1155.765625
4359.169583	58.017532	-97.462303	-1155.122681
4359.172876	59.361778	-77.883110	-1154.772095
4359.176167	60.881355	-57.836349	-1152.668091
4359.179452	62.050262	-37.614262	-1149.804321
4359.182747	63.686729	-16.924606	-1145.713135
4359.186123	66.433670	2.888369	-1141.095825
4359.189418	68.011688	25.272940	-1135.485107
4359.192791	70.641724	45.845703	-1128.997681
4359.196501	72.628876	67.412041	-1121.049072
4359.199828	75.258911	87.751022	-1111.697876
4359.203107	77.596725	108.499115	-1101.060791
4359.206417	80.402100	129.714783	-1090.482178
4359.209756	82.681473	148.943298	-1079.669800
4359.213042	84.960846	169.691406	-1066.344238
4359.216842	87.240204	189.036819	-1053.836914
4359.220303	89.344246	207.622437	-1040.453003
4359.223639	91.389832	226.091171	-1025.432495
4359.227000	93.201637	243.624786	-1010.178223
4359.230309	94.838104	259.989502	-995.099426
4359.233637	95.948563	276.003540	-979.669800
4359.236968	96.474579	291.433105	-964.415588
4359.240301	97.760376	305.869110	-949.161316
4359.243632	97.935715	320.071320	-932.153748
4359.246969	97.701927	333.747528	-916.081299
4359.250306	97.351257	345.611938	-900.125671
4359.253636	97.234360	358.060791	-883.410339
4359.256981	96.123901	368.522522	-867.337830
4359.260304	95.364113	379.627136	-851.732910
4359.264083	94.721214	388.861481	-835.660400
4359.267424	93.026299	397.803650	-819.646423
4359.270767	91.623611	406.102905	-803.164795
4359.274054	89.344246	413.759247	-788.962585
4359.277399	88.233780	420.714233	-773.240784
4359.280729	86.188187	427.493866	-758.395691
4359.284051	84.551727	433.747528	-742.615479
4359.287417	82.564575	439.124481	-728.354797
4359.290723	81.161896	444.092377	-713.684998
4359.294077	78.824081	448.592651	-697.261841
4359.297892	77.596725	452.917633	-683.059631
4359.301242	75.960258	457.008789	-667.805420
4359.304536	73.856224	460.515503	-652.843384
4359.307809	72.628876	463.087067	-637.939819
4359.311145	71.693741	465.308014	-624.380493
4359.314509	70.641724	467.996490	-608.834045
4359.317840	69.648163	468.697845	-593.346008
4359.321256	68.713028	470.451202	-579.377563
4359.324554	68.420807	471.970795	-564.181763
4359.327904	68.479248	472.087677	-550.797791
4359.331583	67.135010	472.789062	-535.601990
4359.334931	66.375221	472.146118	-521.808899
4359.338341	66.316772	472.087677	-506.320831
4359.341673	65.556984	470.217407	-492.118622
4359.345010	65.381645	470.100555	-477.916412
4359.348366	65.615433	467.938049	-465.642914
4359.351689	65.323196	466.360046	-451.966705
4359.355006	64.972527	465.074249	-439.225616
4359.358414	64.855637	462.853333	-425.900055
4359.361705	64.855637	460.047974	-413.626526
4359.365028	64.154297	457.476318	-402.580353
4359.368770	63.511395	454.203400	-390.482147
4359.372126	62.751606	450.872040	-378.968414
4359.375425	62.225597	447.949738	-368.448242
4359.378706	61.348919	444.092377	-358.337219
4359.382053	60.413795	441.111664	-348.401489
4359.385408	59.537113	437.780243	-338.816467
4359.388790	59.069550	434.624207	-329.231415
4359.392083	58.075977	430.942169	-320.347748
4359.395432	56.147282	427.318512	-311.931610
4359.398794	55.504383	423.578033	-304.099945
4359.402568	54.160141	419.954437	-296.560486
4359.405865	53.283459	416.038605	-289.722382
4359.409234	51.705437	412.765656	-282.592041
4359.412523	50.478081	409.726471	-275.870819
4359.415872	49.250729	405.869110	-269.617187
4359.419153	48.198715	402.245483	-263.363525
4359.422511	46.737579	398.855652	-257.285217
4359.425841	45.510227	394.822937	-252.317368
4359.429147	44.107540	391.959106	-246.122162
4359.432580	43.406197	388.861481	-241.388077
4359.436302	42.178841	385.179443	-235.660446
4359.439655	41.126827	380.854492	-230.458801
4359.442942	39.724136	378.166016	-224.497375
4359.446319	39.081238	374.367035	-219.763290
4359.449706	38.029221	370.509644	-214.094101
4359.453015	37.678551	368.113403	-209.827591
4359.456331	37.094097	363.379333	-204.099945
4359.459659	35.983635	359.989502	-198.956757
4359.462974	35.574516	356.891907	-194.690247
4359.466422	35.106953	352.742279	-189.839279
4359.469753	35.399181	348.943329	-185.397430
4359.473068	34.639393	345.319702	-180.488022
4359.476405	33.938046	341.696106	-175.753952
4359.480225	34.464054	337.721832	-171.545883
4359.483613	33.704266	334.332001	-167.220932
4359.486947	33.996494	331.292816	-163.363525
4359.490276	33.295147	327.435425	-158.863235
4359.493627	32.769142	323.987152	-154.187607
4359.496945	33.119812	320.071320	-150.739334
4359.500273	32.476913	316.973724	-146.823502
4359.503609	32.710693	313.350098	-143.258331
4359.506942	32.710693	309.843384	-139.284042
4359.510276	31.366451	306.804230	-135.251312
4359.513608	31.132671	304.349518	-132.621277
4359.517010	30.665108	301.076569	-129.348343
4359.520285	30.489771	298.329651	-126.893631
4359.524058	29.613091	295.348938	-123.679138
4359.527370	29.613091	292.485107	-120.815308
4359.530737	29.087082	290.439545	-117.893051
4359.534027	28.970192	288.043274	-116.139679
4359.537378	28.035067	285.354767	-114.269440
4359.540697	27.684395	283.542969	-113.042084
4359.544024	26.983051	281.380493	-110.353592
4359.547388	26.223261	279.451813	-108.834015
4359.550723	25.346581	277.581543	-107.139099
4359.554067	24.937462	276.120392	-106.028641
4359.557781	24.119228	274.133270	-104.859726
4359.561120	24.294563	272.087708	-102.755707
4359.564443	23.593220	271.269440	-102.054352
4359.567817	22.541203	269.632996	-101.353012
4359.571145	22.541203	267.879608	-99.482758
4359.574571	21.781414	266.593811	-99.015198
4359.577874	21.839859	265.775574	-97.320282
4359.581138	21.313850	263.437775	-96.151367
4359.584449	21.021624	262.268860	-95.157806
4359.588237	20.904734	260.749298	-95.274689
4359.591625	20.904734	260.340149	-94.514908
4359.594950	20.495617	258.236115	-92.586212
4359.598321	19.969608	257.417877	-91.475754
4359.601644	19.969608	255.722961	-89.663940
4359.604965	19.969608	254.320267	-89.313263
4359.608353	19.560490	253.209808	-88.261246
4359.611723	19.502045	251.748688	-87.092346
4359.615022	19.385155	250.404434	-85.163651
4359.618362	19.794271	249.410873	-85.105209
4359.621663	19.618935	247.832855	-83.585617
4359.624995	20.261833	246.371704	-82.592056
4359.628319	19.969608	245.611908	-80.488022
4359.632122	19.502045	244.326126	-79.552895
4359.635415	20.495617	243.858566	-77.799530
4359.638729	19.911163	242.572769	-77.741089
4359.642096	20.028053	241.228516	-76.981300
4359.645494	19.677382	240.527191	-75.870834
4359.648817	19.794271	239.182938	-74.935715
4359.652155	19.677382	238.014023	-74.468147
4359.655457	19.911163	237.488022	-73.649910
4359.658829	19.677382	237.020447	-73.591469
4359.662130	18.450029	236.728226	-72.656342
4359.665492	19.092928	235.968430	-72.013443
4359.669232	18.566921	235.968430	-71.779663
4359.672528	18.742256	235.208633	-71.604324
4359.675936	18.333138	235.325531	-71.370544
4359.679228	18.099358	235.150208	-71.195206
4359.682616	17.924021	235.091766	-71.253647
4359.685948	17.514902	235.500870	-71.019867
4359.689297	17.339567	235.150208	-71.545883
4359.692633	16.287550	236.026886	-71.779663
4359.695968	16.404442	235.909988	-71.838104
4359.699270	16.229105	236.435989	-72.597900
4359.702704	15.527761	236.494461	-73.299240
4359.706003	15.410870	237.078888	-73.474579
4359.709749	15.469316	237.897141	-74.351257
4359.713067	14.417299	238.540039	-74.117477
4359.716382	14.534191	238.598480	-74.818817
4359.719711	14.241964	238.715378	-75.169495
4359.722996	13.657511	239.942734	-75.987724
4359.726377	14.066628	240.644058	-76.864410
4359.729653	13.891293	241.053177	-76.981300
4359.733397	14.241964	242.046753	-78.033310
4359.736917	13.482174	241.929871	-77.916428
4359.740257	13.715956	242.865005	-79.260666
4359.743595	13.774401	242.923431	-78.676208
4359.746920	14.066628	243.916992	-79.260666
4359.750252	13.891293	244.092361	-79.728226
4359.753581	14.125072	244.793686	-80.195786
4359.756915	14.300409	245.027481	-80.955582
4359.760252	14.241964	246.196381	-80.488022
4359.763581	13.891293	246.605499	-81.306259
4359.766923	14.826416	247.423721	-82.124481
4359.770246	14.592636	247.657501	-81.598480
4359.773582	15.644651	248.943314	-82.299820
4359.776927	15.060198	249.469315	-83.001175
4359.780672	15.469316	250.404434	-83.234955
4359.784006	15.118643	251.281128	-83.351837
4359.787358	15.703096	251.924026	-84.520752
4359.790674	15.936878	253.209808	-85.631210
4359.794003	15.761543	254.378738	-86.098770
4359.797332	15.586206	255.372299	-87.209229
4359.800676	15.644651	257.125671	-87.501465
4359.804052	15.060198	258.177673	-88.962601
4359.807362	15.001753	259.697266	-89.839279
4359.810693	15.060198	261.742859	-91.767975
4359.814427	14.475744	264.022217	-93.170654
4359.817792	14.300409	265.424927	-94.514908
4359.821096	14.183517	267.587402	-97.320282
4359.824508	13.423729	268.990082	-98.839859
4359.827786	13.715956	270.743439	-100.417892
4359.831190	12.897720	273.139679	-102.580368
4359.834506	12.605494	275.594391	-104.275284
4359.837828	12.488602	277.990662	-106.963760
4359.841096	11.962595	280.153137	-109.009354
4359.844426	11.845703	282.490936	-111.522507
4359.847804	11.027470	285.121002	-113.977203
4359.851616	11.495031	287.575684	-116.373459
4359.854947	11.261250	290.556396	-118.535950
4359.858308	11.202805	292.777344	-122.042664
4359.861604	10.618351	295.641174	-124.146698
4359.864946	10.793688	298.154297	-127.770309
4359.868330	9.917007	300.141449	-130.751022
4359.871614	10.092344	303.180603	-133.088837
4359.874987	9.917007	305.985992	-135.718887
4359.878281	9.449444	308.908234	-139.167160
4359.881573	9.741671	311.187622	-141.972534
4359.885352	9.449444	313.934570	-144.310349
4359.888636	9.566336	317.032166	-148.109299
4359.891991	9.683226	320.071320	-150.739334
4359.895300	9.741671	322.584473	-153.135605
4359.898688	10.209234	324.922272	-156.992981
4359.902008	10.735243	328.253662	-159.739929
4359.905352	11.202805	330.766815	-162.603745
4359.908677	11.027470	333.805969	-165.584457
4359.912018	10.735243	336.436005	-170.084747
4359.915340	10.910578	339.475189	-172.948578
4359.919151	11.436586	342.222107	-175.929291
4359.922446	11.378141	344.969025	-180.371140
4359.925768	11.904148	348.125092	-183.351837
4359.929056	11.261250	351.164246	-187.735245
4359.932405	10.618351	355.196991	-191.358856
4359.935746	11.202805	358.528351	-195.742264
4359.939031	10.618351	361.041534	-200.943909
4359.942382	10.618351	365.892487	-206.145523
4359.946095	9.800117	369.106964	-211.639389
4359.949394	9.332554	372.438354	-216.373474
4359.952731	9.274109	376.646423	-222.510239
4359.956100	8.455872	379.860931	-228.354782
4359.959466	8.163647	384.361206	-234.783752
4359.962762	7.053185	388.452393	-241.271194
4359.966056	5.825832	391.783752	-247.700180
4359.969344	5.124489	396.284058	-254.421387
4359.972699	4.773817	399.673889	-261.434814
4359.976494	2.903566	403.706635	-269.266510
4359.980223	2.260668	407.505554	-276.221497
4359.983560	1.676210	411.596741	-284.345398
4359.986894	0.507305	415.629486	-292.878418
4359.990231	-0.427822	419.603790	-301.177673
4359.993601	-1.129166	423.227356	-310.236694
4359.996892	-2.531853	427.026306	-318.477478
4360.000226	-3.116306	431.059021	-328.413208
4360.003598	-4.285213	433.689056	-337.179993
4360.006895	-4.635887	437.371155	-346.998810
4360.010228	-5.746346	440.877869	-355.765625
4360.013557	-6.272354	444.033905	-365.759766
4360.016916	-6.447689	447.014618	-375.753937
4360.020224	-7.499710	449.878448	-384.812988
4360.023559	-7.733490	452.625366	-394.865570
4360.026890	-7.908829	455.489197	-404.859711
4360.030223	-8.610172	458.586792	-414.853882
4360.033556	-9.194626	460.866180	-425.549377
4360.036886	-8.902397	463.671539	-435.601959
4360.040223	-8.960842	465.132660	-445.888336
4360.043996	-9.662186	466.476929	-456.583862
4360.047362	-10.246639	468.931641	-467.337830
4360.050680	-10.538868	470.334351	-478.851532
4360.053975	-11.298656	472.789062	-489.780823
4360.057309	-11.473991	472.964386	-502.580322
4360.060675	-11.941555	473.256592	-513.860291
4360.063974	-12.642899	474.483917	-526.309204
4360.067308	-13.227352	474.425507	-538.816528
4360.070649	-14.922268	474.425507	-551.323792
4360.073981	-15.565166	474.133240	-564.766235
4360.077354	-16.967857	473.607269	-578.384033
4360.081186	-18.662769	473.315033	-592.410889
4360.084101	-19.948566	471.853912	-606.262451
4360.087733	-21.643482	469.808289	-621.224487
4360.091101	-23.104622	468.171844	-635.660461
4360.094397	-25.793106	464.665131	-651.674438
4360.097756	-28.247810	461.976624	-667.045593
4360.101086	-30.644073	457.417908	-683.351868
4360.104505	-32.923439	452.976044	-698.547668
4360.107827	-35.495033	447.774414	-715.204590
4360.111133	-38.534187	442.455902	-731.101685
4360.114870	-41.514900	436.436035	-746.998840
4360.118173	-44.437172	428.662781	-763.538879
4360.121572	-47.534775	420.889557	-780.429626
4360.124957	-50.340149	413.057861	-797.203430
4360.128251	-53.320869	404.817108	-812.983643
4360.131564	-55.600235	395.758057	-829.173035
4360.134889	-58.405617	385.471680	-845.128601
4360.138183	-60.860321	374.542389	-862.253052
4360.141578	-63.490356	364.489807	-877.507385
4360.144902	-65.594383	353.092926	-892.294006
4360.148283	-67.523087	341.286987	-906.788391
4360.151600	-69.685570	328.896576	-921.984253
4360.155381	-71.906487	316.564606	-937.647583
4360.158701	-73.601402	303.648163	-951.908264
4360.162007	-75.004089	290.556396	-965.116943
4360.165300	-76.348343	276.529541	-978.676270
4360.168605	-77.400352	263.087097	-991.358887
4360.171937	-78.452370	248.709518	-1004.859802
4360.175389	-79.679718	234.507309	-1016.315063
4360.178668	-81.549965	219.486847	-1027.478027
4360.182385	-81.900642	204.232605	-1039.225586
4360.185697	-83.011101	188.861481	-1050.096436
4360.189009	-83.770897	172.146118	-1060.908813
4360.192356	-84.881355	156.482758	-1069.850952
4360.195634	-85.582695	140.468719	-1079.786743
4360.198987	-87.628296	123.285805	-1087.442993
4360.202317	-88.271187	106.570435	-1096.151367
4360.205635	-89.673874	89.212158	-1103.340210
4360.209454	-91.135010	71.444771	-1110.236694
4360.212734	-93.180595	53.677380	-1117.893066
4360.216106	-93.881943	35.208649	-1122.334961
4360.219407	-96.687309	17.032145	-1127.770264
4360.222731	-98.849800	-2.430158	-1132.562866
4360.226040	-100.661598	-21.600235	-1133.556396
4360.229382	-102.707176	-39.776741	-1137.355347
4360.232749	-104.519005	-59.005257	-1138.115112
4360.236059	-107.616600	-77.766220	-1138.933472
4360.239836	-110.188194	-96.819405	-1138.933472
4360.243539	-112.116890	-115.931038	-1137.063232
4360.246873	-114.396263	-133.932205	-1135.368164
4360.250204	-116.558739	-152.634720	-1131.744629
4360.253536	-118.838112	-170.869659	-1127.478027
4360.256868	-120.708351	-189.104614	-1122.393433
4360.260203	-122.870842	-206.696671	-1116.782593
4360.263558	-124.156624	-222.710693	-1109.184692
4360.266867	-125.676216	-238.900055	-1102.346558
4360.270198	-126.552895	-254.563431	-1094.573364
4360.273530	-127.371132	-269.233185	-1085.455811
4360.276864	-128.014038	-283.669189	-1074.643433
4360.280204	-128.890717	-297.170074	-1065.233765
4360.283529	-128.656921	-311.021606	-1053.661621
4360.286871	-128.656921	-323.178253	-1043.433716
4360.290194	-128.364685	-335.042633	-1032.679687
4360.293534	-127.721794	-345.971954	-1020.815308
4360.296866	-127.078896	-358.070099	-1008.366455
4360.300198	-126.143776	-367.479828	-995.450073
4360.303528	-125.383980	-376.772644	-982.533630
4360.307309	-124.390404	-385.539429	-969.675659
4360.310628	-122.286385	-394.072449	-956.583923
4360.313954	-121.175926	-401.202789	-943.258362
4360.317282	-119.656334	-408.508453	-930.634155
4360.320652	-117.669197	-415.814117	-915.321472
4360.324004	-116.441841	-421.658661	-901.236084
4360.327311	-114.630043	-427.444733	-886.507935
4360.330623	-112.701347	-432.412628	-872.071899
4360.333952	-110.889549	-437.205109	-858.512573
4360.337283	-109.311516	-442.874329	-843.492065
4360.341046	-108.785515	-446.614838	-827.828735
4360.344404	-107.265923	-449.829346	-813.977234
4360.347732	-106.213921	-453.745178	-797.612549
4360.351232	-104.577446	-456.258301	-781.540039
4360.354459	-103.408546	-459.122131	-765.993591
4360.357722	-102.414970	-461.343048	-750.388672
4360.361042	-101.362938	-463.505554	-734.783752
4360.364386	-100.836937	-465.434204	-718.828186
4360.367749	-100.077156	-466.603149	-703.866211
4360.371060	-99.258919	-468.239594	-687.618347
4360.374454	-98.031563	-468.765656	-672.247253
4360.377779	-97.330208	-469.992981	-655.882568
4360.381533	-96.862648	-470.285187	-639.459351
4360.384879	-96.336647	-469.233185	-623.562256
4360.388217	-95.576866	-469.817627	-607.372925
4360.391556	-95.167747	-468.940979	-592.410889
4360.394918	-94.174171	-467.772064	-577.215088
4360.398235	-93.706612	-466.427795	-561.843994
4360.401549	-92.771484	-465.551147	-548.343079
4360.404861	-91.777908	-463.797760	-533.907104
4360.408166	-90.316772	-461.635315	-519.412659
4360.411600	-89.440094	-460.232605	-506.320831
4360.414895	-88.037407	-458.011688	-492.118622
4360.418678	-87.102280	-455.966095	-479.962006
4360.421987	-86.108711	-453.394501	-468.039154
4360.425342	-83.946228	-451.056671	-455.648743
4360.428667	-83.420219	-448.309753	-444.661011
4360.431970	-81.433083	-445.796600	-434.082397
4360.435312	-79.971947	-443.341888	-423.562225
4360.438636	-78.452370	-439.952026	-413.217407
4360.441925	-77.166573	-437.088257	-404.041473
4360.445273	-75.588547	-434.867340	-394.807129
4360.449011	-74.302742	-431.594360	-385.689636
4360.452350	-72.432495	-429.022797	-377.624176
4360.455700	-70.971359	-425.866760	-368.740479
4360.458996	-69.218002	-423.178253	-360.207458
4360.462342	-67.639984	-419.788422	-352.784912
4360.465645	-65.828171	-417.158356	-345.070129
4360.469008	-65.243713	-414.236115	-337.881348
4360.472304	-63.665695	-411.138489	-330.751007
4360.475645	-62.087669	-408.333099	-323.036224
4360.479429	-61.327881	-404.592621	-316.315002
4360.482742	-60.392754	-401.904144	-309.769135
4360.486055	-58.405617	-398.981842	-302.521881
