crossing time (s)	slope (V/s)	crossing number
4358.185349	-118.417489	1564
4359.140629	-86.576422	1565
4360.168962	-70.460340	1566
4361.247866	-54.894013	1567
4362.300463	-43.293562	1568
4363.307682	-35.150788	1569
4364.349367	-30.222290	1570
4365.399492	-23.792546	1571
4366.433524	-19.694193	1572
4367.429676	-17.394057	1573
4368.501751	-13.899565	1574
4369.545322	-11.476547	1575
4370.560679	-10.174211	1576
4371.581857	-6.389049	1577
