time (s)	magX	magY	magZ
5904.402434	22.658094	-253.803635	-786.858582
5904.405770	23.184101	-244.277039	-797.787842
5904.409110	23.768557	-234.399765	-806.788452
5904.412440	24.586792	-224.288712	-815.672119
5904.416231	25.229691	-213.067215	-825.198730
5904.419536	26.632378	-201.787247	-833.556396
5904.422862	27.742840	-190.448853	-841.446533
5904.426185	29.320864	-178.116898	-847.291016
5904.429548	30.898890	-166.135590	-853.427856
5904.432863	32.769142	-153.160736	-860.207520
5904.436214	35.399181	-139.893631	-864.240234
5904.439552	37.210987	-127.035660	-867.571594
5904.442889	39.665691	-112.891876	-871.487488
5904.446258	41.302162	-98.572769	-873.708374
5904.449532	43.581532	-84.195206	-876.396912
5904.453291	46.211571	-69.233200	-876.572205
5904.456612	47.906487	-53.745178	-876.338440
5904.459991	50.302750	-38.490944	-876.455261
5904.463302	51.997662	-22.652250	-874.526672
5904.466681	54.277031	-6.462887	-872.305725
5904.470026	55.679718	10.544710	-869.792542
5904.473335	57.608414	26.383402	-865.526062
5904.476605	59.186440	43.040325	-861.259521
5904.479949	60.472237	60.457043	-853.953918
5904.483308	60.939800	76.704849	-848.401489
5904.487113	61.991817	93.478668	-840.219177
5904.490057	62.284042	109.784920	-833.497986
5904.493832	61.991817	125.506721	-823.620728
5904.497164	62.050262	142.105209	-814.386353
5904.500489	61.465809	157.768555	-803.457092
5904.503780	60.998245	172.555222	-792.294006
5904.507133	60.764465	187.400345	-781.014038
5904.510455	59.946228	201.777908	-769.792542
5904.513778	58.777321	215.278778	-757.051453
5904.517085	57.725304	227.786102	-744.661072
5904.520466	56.673290	240.351822	-732.562805
5904.523848	55.270599	251.865585	-720.114014
5904.527590	54.335476	261.392181	-706.145508
5904.530902	53.049675	272.789032	-692.936890
5904.534240	51.646988	282.081848	-679.260681
5904.537563	50.478081	290.614868	-666.987122
5904.540898	49.426064	298.621857	-652.492737
5904.544280	48.549385	306.102875	-640.628296
5904.547620	47.848042	312.590302	-626.426086
5904.550932	47.380478	319.603760	-612.399231
5904.554336	46.445354	325.857391	-600.710083
5904.557628	46.270020	330.942169	-586.507874
5904.560992	45.860901	335.734680	-573.591492
5904.564323	45.744011	339.650513	-561.142639
5904.568091	45.627117	343.040344	-549.395081
5904.571455	45.218002	346.839294	-536.303345
5904.574809	45.334892	349.820007	-524.088257
5904.578151	45.744011	352.274689	-511.931580
5904.581546	45.393337	354.028046	-500.534760
5904.584813	45.510227	356.482758	-488.144318
5904.588169	45.042664	358.002350	-476.630615
5904.591457	45.451782	358.762146	-463.655731
5904.594810	45.568672	359.405029	-451.382233
5904.598151	45.744011	360.398590	-439.576263
5904.601874	45.685562	360.457062	-428.413177
5904.605236	45.276447	360.457062	-416.782562
5904.608590	45.627117	360.457062	-405.093506
5904.611879	44.867329	359.638824	-393.755096
5904.615238	44.049095	358.528351	-381.773804
5904.618545	43.523087	357.943909	-370.084747
5904.621865	43.055523	356.541229	-358.804779
5904.625198	42.003506	355.080078	-348.167725
5904.628483	41.360607	353.092926	-336.946228
5904.631856	40.483925	350.930481	-326.952087
5904.635594	39.198128	348.884857	-316.373444
5904.639116	38.029221	346.547058	-306.087067
5904.642424	36.977207	344.033905	-296.092926
5904.645750	35.632961	341.520752	-286.098755
5904.649084	34.054939	337.955597	-277.215088
5904.652414	31.717125	335.910004	-268.097595
5904.655751	30.957335	332.344849	-259.097015
5904.659073	29.379311	329.013458	-251.732910
5904.662415	28.736412	325.389832	-243.492111
5904.665736	27.742840	322.000000	-236.244888
5904.669081	26.281706	319.019287	-227.711853
5904.672409	25.112799	316.330811	-221.282883
5904.675739	23.827002	312.531891	-215.029236
5904.679090	23.593220	308.908234	-208.132675
5904.682836	22.307423	305.693756	-201.937469
5904.686190	21.781414	301.719482	-195.683823
5904.689529	21.547632	298.914093	-190.014618
5904.692860	20.378725	295.348938	-185.163651
5904.696215	20.495617	292.426666	-180.137344
5904.699498	19.794271	288.803040	-176.221512
5904.702836	19.794271	285.354767	-170.143188
5904.706168	19.092928	282.549408	-165.642914
5904.709493	19.502045	279.218018	-162.019287
5904.712836	19.385155	276.061951	-157.694336
5904.716618	19.092928	272.905914	-153.252487
5904.720009	19.443600	269.340759	-149.804214
5904.723367	19.326710	266.769135	-146.297501
5904.726692	19.209820	263.203979	-142.673874
5904.729922	18.976036	260.690826	-138.933365
5904.733254	18.917591	257.827026	-134.666855
5904.736609	18.800701	254.554062	-132.036819
5904.739944	18.742256	251.690231	-128.471664
5904.743282	18.976036	248.475754	-124.848038
5904.746678	18.859146	246.079483	-121.282867
5904.750011	18.800701	243.683228	-118.886612
5904.753719	18.391582	240.176498	-114.737000
5904.757042	18.099358	237.663345	-111.697845
5904.760442	17.573347	234.448868	-108.541794
5904.763761	17.222675	231.526596	-104.801285
5904.767137	17.047340	228.428986	-102.521912
5904.770493	16.345995	226.324951	-98.898315
5904.773779	15.527761	223.811798	-96.151367
5904.777100	15.644651	221.123322	-92.703094
5904.780478	14.943308	218.960846	-90.131500
5904.784203	15.001753	215.220337	-87.735245
5904.787502	14.066628	213.525421	-85.514313
5904.790822	14.300409	210.427811	-82.942719
5904.794213	12.956165	208.323792	-81.130920
5904.797562	12.722383	205.576859	-79.319107
5904.800882	11.962595	203.531265	-76.572174
5904.804208	11.436586	200.959671	-73.766800
5904.807538	11.144360	199.381653	-71.545883
5904.810851	11.085915	196.868500	-70.084747
5904.814640	10.150789	194.589127	-68.272942
5904.817931	9.332554	193.244888	-66.987137
5904.821272	9.390999	191.725311	-65.467560
5904.824581	9.040327	190.439514	-63.597313
5904.827969	9.215664	188.101700	-63.305084
5904.831317	8.864992	187.166565	-62.486851
5904.834618	8.572763	185.413208	-61.317944
5904.837913	7.929865	183.776733	-59.798363
5904.841235	8.280537	182.023376	-57.811218
5904.844641	8.046755	180.737579	-57.518993
5904.847955	8.163647	179.685562	-56.350086
5904.851768	8.514318	178.165985	-56.057861
5904.855074	7.637638	177.406204	-54.888954
5904.858451	8.631208	175.769714	-54.421391
5904.861833	8.864992	174.367035	-53.836937
5904.865138	8.923437	174.074814	-52.551140
5904.868490	8.572763	173.373474	-51.849796
5904.871891	8.631208	171.795441	-51.791351
5904.875212	8.923437	171.094086	-50.622444
5904.878559	9.332554	170.042084	-50.563999
5904.881966	9.040327	168.873169	-50.037991
5904.885758	8.689655	168.054932	-48.810635
5904.889053	8.280537	167.295135	-48.401520
5904.892388	8.748100	166.769150	-47.466393
5904.895721	9.449444	165.308014	-47.174164
5904.899054	8.689655	164.139099	-46.531265
5904.902392	8.981882	163.320862	-45.362358
5904.905722	8.338982	162.210403	-44.719460
5904.909056	8.514318	161.684387	-44.076561
5904.912391	8.222092	161.099945	-43.258331
5904.915746	7.988310	159.580353	-43.024548
5904.919060	7.929865	159.405029	-42.206314
5904.922402	7.403856	158.937469	-42.089424
5904.925722	6.994740	157.710114	-41.095848
5904.929063	7.053185	157.184097	-40.511398
5904.932386	6.468731	156.132080	-39.634716
5904.936146	6.176504	155.781403	-39.459381
5904.939484	5.825832	154.787842	-39.050262
5904.942810	5.650497	154.437164	-38.641144
5904.946143	5.708942	153.502045	-38.173584
5904.949474	4.656925	152.859146	-37.413792
5904.952808	4.949152	152.859146	-37.706020
5904.956159	4.715370	152.742249	-37.238457
5904.959551	3.663355	152.450027	-37.238457
5904.962837	3.897137	152.333130	-36.829338
5904.966169	4.130919	151.339569	-36.946228
5904.969900	3.780247	151.748688	-36.595558
5904.973248	4.130919	152.157806	-36.595558
5904.976605	4.306253	151.982468	-36.478668
5904.979942	4.072472	152.625366	-37.063118
5904.983257	3.780247	152.508469	-37.706020
5904.986701	3.780247	152.742249	-37.589130
5904.989967	3.721800	152.683823	-37.706020
5904.993230	4.072472	153.385162	-37.647575
5904.996560	4.306253	154.086502	-38.348919
5904.999891	4.598480	154.144943	-39.167152
5905.003287	4.598480	154.670944	-38.582703
5905.007064	4.890707	154.612503	-39.108711
5905.010398	5.007597	155.664520	-40.160725
5905.013787	4.949152	155.313843	-40.394508
5905.017097	4.540035	155.898300	-40.336060
5905.020459	5.066044	156.716537	-40.336060
5905.023841	5.007597	157.067215	-41.271187
5905.027141	5.299824	157.710114	-42.264759
5905.030522	5.182934	157.827011	-41.972530
5905.033769	6.001169	158.645233	-42.030975
5905.037127	5.767387	158.645233	-42.147865
5905.040449	5.416716	159.521927	-42.673874
5905.043812	6.118059	159.580353	-42.147865
5905.047200	5.708942	159.814133	-42.381649
5905.050939	5.884277	161.041489	-43.492111
5905.054248	5.767387	161.567505	-43.316772
5905.057591	5.650497	161.625961	-43.433662
5905.060917	5.066044	162.561081	-44.251900
5905.064265	4.540035	163.087082	-44.953243
5905.067591	4.773817	163.846878	-44.368790
5905.070888	4.481590	164.665115	-45.303917
5905.074206	3.780247	165.249557	-44.719460
5905.077957	3.604910	166.476913	-45.771477
5905.081277	3.137346	166.710693	-45.946815
5905.084586	3.254238	167.762711	-47.232613
5905.088012	2.611340	168.288712	-49.395092
5905.091289	2.260668	170.217422	-47.933956
5905.094679	2.377558	170.684982	-49.570427
5905.097985	1.909996	171.795441	-50.154881
5905.101317	2.319113	172.672119	-50.213326
5905.104660	1.559319	174.367035	-51.674461
5905.107946	1.325539	175.302155	-52.960258
5905.111764	1.559319	176.821747	-54.129166
5905.115064	0.974865	177.873764	-55.122734
5905.118391	1.033314	179.802444	-56.174751
5905.121769	1.033314	181.205139	-57.518993
5905.125093	0.857975	183.484512	-59.272358
5905.128371	1.676210	185.471649	-60.032146
5905.131757	1.033314	186.699005	-61.610168
5905.135050	1.442429	188.803040	-63.480419
5905.138418	1.325539	190.381058	-65.116890
5905.141729	1.793102	192.309753	-66.694916
5905.145049	1.968441	194.413788	-67.805374
5905.148813	1.851549	196.400940	-70.026306
5905.152362	1.968441	198.621857	-72.071892
5905.155691	1.851549	200.784332	-73.825256
5905.159054	2.260668	203.180603	-76.338394
5905.162357	2.611340	205.226196	-77.799530
5905.165697	2.845119	207.213318	-80.663353
5905.169025	3.254238	209.784927	-82.299820
5905.172364	2.903566	211.830505	-83.877853
5905.175771	2.786674	213.759216	-86.917007
5905.179024	3.020456	216.038574	-88.787262
5905.182364	2.611340	218.434845	-90.832840
5905.185693	2.436003	221.298660	-93.404434
5905.189026	2.202221	223.578033	-95.216248
5905.192357	2.202221	225.915848	-97.904739
5905.196120	2.143776	228.253662	-99.950317
5905.199452	1.150204	230.649902	-102.872589
5905.202811	1.091759	233.163055	-105.035065
5905.206117	1.208649	234.974869	-107.606659
5905.209452	0.624195	237.195786	-109.769135
5905.212811	0.565750	240.351822	-112.808304
5905.216134	-0.603157	242.338974	-116.373459
5905.219494	-0.895386	245.553482	-118.594391
5905.222782	-1.655174	248.066620	-121.341324
5905.226116	-2.356518	250.988892	-124.964920
5905.229868	-3.116306	253.735840	-128.705444
5905.233255	-4.109879	256.365875	-132.036819
5905.236589	-4.226768	259.405029	-135.835770
5905.239948	-5.454121	262.210419	-140.102280
5905.243282	-5.629456	265.717163	-143.784332
5905.246622	-5.980129	268.873199	-149.336655
5905.249862	-6.739918	272.087708	-152.901825
5905.253204	-7.265930	274.951508	-157.869675
5905.256548	-7.675045	278.633575	-163.246643
5905.259889	-7.850380	282.081848	-167.805374
5905.263246	-7.675045	285.705444	-174.292816
5905.266634	-8.084164	288.510834	-179.260666
5905.270368	-8.025719	291.608429	-184.871429
5905.273656	-8.493279	295.348938	-190.657516
5905.277011	-8.551727	298.797211	-196.385162
5905.280412	-8.201054	302.537689	-203.340149
5905.283703	-8.727062	306.044434	-210.528931
5905.287063	-8.610172	309.434265	-218.009933
5905.290387	-8.960842	313.057861	-224.088257
5905.293680	-8.843952	316.038574	-232.212158
5905.297467	-8.376389	319.428406	-240.043839
5905.300786	-8.785507	322.759796	-247.407944
5905.304126	-9.136181	325.623627	-255.356522
5905.307429	-9.019287	329.188812	-262.311523
5905.310754	-9.077732	332.637085	-270.669189
5905.314037	-9.077732	334.448883	-278.910004
5905.317383	-9.603741	337.604919	-286.332550
5905.320756	-10.480423	340.118073	-296.034485
5905.324065	-10.772648	342.748108	-304.859711
5905.327802	-11.181767	345.319702	-313.860291
5905.331121	-12.526009	347.248413	-323.562225
5905.334463	-13.168907	348.884857	-332.855042
5905.337793	-14.571594	351.631805	-341.680298
5905.341101	-15.331383	352.976074	-351.206879
5905.344463	-17.143188	354.320282	-361.376373
5905.347786	-18.312096	355.372314	-370.961395
5905.351078	-19.831676	356.716553	-380.897125
5905.354434	-22.403275	358.002350	-391.592621
5905.358166	-23.747517	358.060791	-402.580353
5905.361510	-25.734657	359.229706	-413.217407
5905.364852	-27.429573	358.762146	-425.140259
5905.368141	-30.118061	358.645233	-435.952637
5905.371489	-31.812981	357.710114	-448.109283
5905.374765	-34.501465	357.067230	-459.915222
5905.378126	-35.845703	355.372314	-472.071869
5905.381433	-37.248390	353.735840	-484.579193
5905.384798	-39.469322	351.807129	-498.313843
5905.388588	-41.865578	349.469330	-510.178253
5905.392340	-43.151375	346.488617	-523.796021
5905.395675	-44.670952	343.683258	-536.829407
5905.399006	-46.073639	338.949158	-550.739319
5905.402340	-47.826996	334.448883	-564.064880
5905.405672	-48.820572	329.188812	-577.799561
5905.409008	-49.521919	323.753387	-591.358887
5905.412338	-51.041496	318.493286	-606.671570
5905.415672	-51.450615	311.421387	-619.997070
5905.419009	-52.736412	304.349518	-634.316223
5905.422339	-53.437759	296.576294	-648.167786
5905.425666	-53.729980	288.627716	-662.486816
5905.429001	-53.613091	279.451813	-676.747498
5905.432335	-53.846870	269.866760	-691.183533
5905.435668	-54.957336	259.931030	-703.749268
5905.438999	-55.249557	249.235550	-716.490356
5905.442338	-55.483345	238.949142	-729.699036
5905.445665	-56.126244	227.318527	-741.621887
5905.449017	-56.535355	215.220337	-752.843384
5905.452779	-57.821159	203.355927	-763.947998
5905.456116	-58.522507	190.848618	-775.344849
5905.459456	-59.983635	177.347748	-785.046753
5905.462806	-60.860321	163.729980	-795.099365
5905.466087	-61.912331	149.995331	-804.625977
5905.469427	-62.905899	135.968445	-813.217468
5905.472764	-64.659264	121.357101	-821.341370
5905.476083	-67.055527	106.161308	-828.179443
5905.479449	-68.691994	91.257744	-836.420227
5905.482760	-71.146706	76.295731	-841.972595
5905.486531	-73.133835	61.333725	-847.057312
5905.489932	-75.004089	46.196377	-851.323853
5905.493277	-77.634132	31.059029	-855.531860
5905.496508	-79.913498	15.395676	-858.337280
5905.499845	-82.134422	-1.085915	-861.142578
5905.503199	-84.822914	-16.515490	-862.545349
5905.506536	-86.810051	-31.886616	-863.363525
5905.509870	-88.680305	-47.082409	-863.831116
5905.513288	-90.901230	-62.979546	-862.194702
5905.516588	-92.187019	-78.116890	-860.733459
5905.519917	-93.940392	-93.137344	-858.570984
5905.523633	-95.869087	-108.274689	-855.473389
5905.526953	-96.570427	-122.827583	-851.616028
5905.530351	-96.921104	-137.263580	-847.758606
5905.533679	-97.447105	-151.699600	-842.030945
5905.537044	-98.382240	-165.609589	-835.894287
5905.540392	-97.622444	-179.636475	-829.815918
5905.543724	-97.797783	-192.611343	-822.159546
5905.547013	-97.096428	-205.469315	-814.152588
5905.550393	-96.278206	-217.158386	-805.911804
5905.553688	-94.641731	-229.607239	-796.268250
5905.557061	-94.583290	-240.711868	-786.917053
5905.560390	-92.187019	-251.582703	-776.338440
5905.564203	-90.784332	-261.810608	-765.058472
5905.567544	-88.680305	-271.512543	-753.018738
5905.570863	-87.219170	-280.571594	-741.212769
5905.574198	-84.822914	-288.987701	-729.172974
5905.577531	-83.069550	-297.637634	-716.256592
5905.580820	-81.433083	-305.001740	-704.041504
5905.584185	-79.621277	-311.547607	-690.423706
5905.587482	-77.225014	-318.561066	-676.163086
5905.590805	-76.582123	-323.645813	-662.428406
5905.594543	-74.536530	-329.198120	-647.700195
5905.597863	-73.367622	-334.282837	-633.264221
5905.601222	-72.198715	-338.198700	-619.412659
5905.604513	-71.205139	-341.588531	-605.736450
5905.607796	-69.919350	-344.686127	-591.417297
5905.611094	-69.101105	-347.257721	-576.864441
5905.614440	-68.341324	-350.179993	-563.655762
5905.617801	-67.698418	-351.407349	-548.986023
5905.621184	-67.698418	-353.394470	-535.075989
5905.624934	-66.938637	-353.511383	-520.698425
5905.628232	-66.938637	-355.089417	-506.905304
5905.631594	-66.412628	-356.258331	-493.462860
5905.634918	-65.828171	-355.673859	-479.728210
5905.638285	-65.711281	-355.206299	-467.279358
5905.641631	-65.945061	-355.264740	-453.778473
5905.644976	-64.834602	-355.673859	-441.621857
5905.648289	-64.834602	-353.277618	-428.354767
5905.651606	-64.893044	-351.874908	-417.074799
5905.655365	-64.776154	-350.413788	-404.392151
5905.658985	-64.016365	-349.069519	-392.761536
5905.662313	-62.964348	-346.965515	-381.423126
5905.665641	-62.847458	-345.270599	-368.974274
5905.668975	-62.087669	-342.991211	-357.928101
5905.672311	-60.217415	-340.887177	-346.355927
5905.675664	-59.925194	-337.906494	-336.712433
5905.679011	-58.230278	-336.036224	-326.601379
5905.682310	-56.886032	-333.347717	-316.431915
5905.685659	-55.717125	-330.659241	-306.788422
5905.688980	-54.080650	-327.736969	-296.268250
5905.692309	-52.035072	-324.580933	-286.741669
5905.695638	-51.275276	-322.009338	-277.507294
5905.698979	-49.288139	-318.561066	-269.383392
5905.702304	-47.710106	-315.521912	-259.739899
5905.705640	-45.956749	-311.956726	-252.609573
5905.708972	-44.670952	-309.209808	-244.135010
5905.712727	-43.502045	-306.229095	-235.952652
5905.716075	-42.216248	-302.196350	-228.413208
5905.719430	-41.105789	-299.449432	-220.055527
5905.722809	-39.469322	-295.708923	-213.217422
5905.726086	-37.891289	-292.026886	-206.262421
5905.729408	-36.780830	-288.753937	-200.125656
5905.732733	-35.027466	-285.188782	-193.112228
5905.736057	-34.384575	-281.740509	-187.443024
5905.739398	-33.507889	-278.000000	-181.656937
5905.742735	-32.806549	-274.551697	-175.753952
5905.746538	-32.631210	-272.330780	-170.961426
5905.749846	-31.637642	-269.174744	-165.292236
5905.753234	-30.994743	-265.901794	-159.973709
5905.756608	-30.644073	-263.037964	-155.298080
5905.759841	-29.825829	-258.771454	-151.382233
5905.763142	-29.533607	-256.024536	-147.057281
5905.766521	-29.650497	-253.569839	-142.206314
5905.769842	-29.358269	-250.530685	-137.822906
5905.773186	-28.715370	-246.731720	-134.433075
5905.776583	-29.007595	-244.452377	-130.517242
5905.779884	-29.007595	-241.705429	-125.958496
5905.783264	-28.832264	-238.783157	-123.036240
5905.786908	-29.124485	-236.153122	-119.880188
5905.790301	-28.364700	-233.581528	-116.431915
5905.793674	-28.014027	-231.360611	-113.217422
5905.796986	-28.130920	-227.970779	-110.002914
5905.800369	-28.014027	-226.158966	-106.554642
5905.803661	-27.663357	-223.528931	-104.567505
5905.807001	-27.371128	-220.898880	-100.826996
5905.810336	-26.962013	-218.794861	-97.729401
5905.813701	-25.909996	-215.989487	-95.333145
5905.817441	-25.383984	-213.476334	-92.527771
5905.820725	-25.150204	-211.080063	-90.540619
5905.824090	-25.091763	-209.326706	-87.735245
5905.827479	-24.390419	-206.521332	-85.222092
5905.830785	-23.747517	-204.241959	-83.059616
5905.834090	-23.572182	-201.845703	-80.838692
5905.837395	-22.812389	-200.150787	-78.325539
5905.840773	-22.227936	-198.163651	-76.221512
5905.844094	-21.351261	-196.176498	-74.994156
5905.847408	-21.117477	-193.955582	-72.656342
5905.851166	-20.649910	-192.260666	-70.727646
5905.854478	-19.597893	-190.624191	-69.441849
5905.857865	-19.773232	-188.812393	-67.162476
5905.861162	-18.838108	-187.292816	-65.935120
5905.864530	-18.136765	-185.188766	-63.772648
