time (s)	magX	magY	magZ
10015.351747	-292.551147	163.497955	470.822327
10015.355112	-292.025146	162.387497	483.855682
10015.358846	-291.674469	161.452362	494.025116
10015.362145	-291.031555	160.809479	505.772675
10015.365461	-289.044434	159.757446	517.461670
10015.368752	-287.875519	159.056107	530.085937
10015.372122	-285.771484	157.419632	541.774963
10015.375439	-284.018127	155.841614	554.106934
10015.378762	-281.738770	153.445358	566.614258
10015.382515	-279.342499	151.691986	579.355347
10015.385820	-275.718903	149.646408	591.453491
10015.389157	-272.329041	146.665695	604.311462
10015.392441	-268.705444	144.444763	617.169495
10015.395748	-264.731140	141.756287	630.085937
10015.399034	-261.049103	137.957336	641.424255
10015.402393	-255.379913	134.567505	654.691345
10015.406194	-249.886047	130.651672	667.549377
10015.409518	-245.619507	126.560486	680.465820
10015.412827	-239.132111	122.586205	692.563965
10015.416132	-233.170654	117.910576	704.311462
10015.419452	-227.092346	113.118057	716.117432
10015.422743	-219.377563	108.383987	727.864990
10015.426210	-212.656342	103.065460	738.911133
10015.429504	-205.000000	97.980713	751.243103
10015.432816	-196.466980	92.369957	761.354187
10015.436190	-188.226166	86.817650	771.815857
10015.439993	-179.108704	81.148445	782.511414
10015.443645	-169.640564	75.128578	792.037903
10015.446976	-160.055511	69.225601	801.506104
10015.450317	-150.353607	63.205727	811.091187
10015.453644	-139.774994	56.893627	818.279907
10015.456974	-129.488586	50.698421	828.274109
10015.460311	-117.857979	43.801872	835.404480
10015.463648	-107.396263	37.431328	842.417847
10015.466977	-96.116302	31.060783	848.379272
10015.470305	-83.609001	24.398014	853.463989
10015.473639	-72.095261	18.027470	858.139648
10015.477003	-59.704857	11.072473	862.581482
10015.480305	-48.191116	3.942140	867.315552
10015.483648	-35.566921	-2.194623	869.478088
10015.486973	-23.527176	-9.266511	873.101685
10015.490310	-10.552307	-15.929282	874.270569
10015.493645	1.896551	-22.182938	876.257751
10015.496978	13.994739	-29.079487	876.140869
10015.500759	27.261833	-36.034485	876.257751
10015.504063	40.470482	-42.229691	874.679687
10015.507402	52.802452	-48.950909	874.387512
10015.510747	65.017532	-55.555237	871.523621
10015.514085	77.524841	-62.276443	868.952026
10015.517425	90.032143	-68.237877	865.270020
10015.520746	102.188774	-74.316193	861.295776
10015.524067	114.111633	-81.037407	855.568115
10015.527401	125.917587	-86.472824	850.483276
10015.530738	136.671539	-92.668030	843.762085
10015.534486	148.419067	-98.161896	837.683838
10015.537838	159.932800	-103.947983	830.436584
10015.541175	170.511414	-110.201645	821.669739
10015.544558	181.382233	-115.403267	812.844543
10015.547892	191.025696	-120.897141	803.493286
10015.551150	201.487427	-125.806549	795.135559
10015.554475	210.604919	-131.008179	783.504944
10015.557811	220.657501	-135.508469	773.861450
10015.561168	228.664520	-139.541199	762.172363
10015.564549	237.314423	-143.281708	751.593811
10015.567906	245.438324	-147.606674	739.437134
10015.571662	253.562225	-150.353592	727.338928
10015.574968	260.867889	-154.620102	715.883667
10015.578292	267.063110	-157.659271	703.376343
10015.581604	273.024536	-160.172409	691.628845
10015.584991	279.570435	-162.977783	678.887756
10015.588343	286.174744	-165.374054	665.386902
10015.591665	290.967255	-168.062546	651.535339
10015.594960	295.000000	-170.225006	639.320251
10015.598354	299.967865	-171.803040	626.637634
10015.601742	304.292816	-173.264175	613.019836
10015.605461	308.559326	-174.199310	600.337219
10015.608735	311.656921	-175.835770	587.303894
10015.612067	315.338989	-176.069550	574.562805
10015.615382	318.378143	-177.472244	561.646362
10015.618722	320.657501	-177.881363	548.613098
10015.622058	322.995331	-178.290466	536.222656
10015.625378	324.748688	-179.167145	523.072449
10015.629170	326.502014	-179.108719	511.324982
10015.632504	327.203369	-179.634705	499.109894
10015.635803	328.430725	-179.576279	485.492126
10015.639088	329.541199	-179.284042	473.978363
10015.642398	330.184082	-179.108719	461.587982
10015.645768	330.476318	-178.465805	450.249573
10015.649126	330.826996	-178.056686	437.566925
10015.652410	331.119232	-177.530685	427.046783
10015.655779	330.125671	-176.770905	415.065460
10015.659497	329.541199	-177.296906	403.960846
10015.662802	328.606079	-176.946228	393.323792
10015.666103	327.437164	-175.251312	382.511414
10015.669435	326.794250	-174.666870	371.991241
10015.672796	325.508453	-173.497955	361.646393
10015.676138	324.456451	-172.621277	351.535370
10015.679491	322.936859	-171.452362	341.541199
10015.682827	321.183502	-170.575684	331.488617
10015.686160	319.605499	-169.991226	322.371155
10015.689976	317.442993	-168.413208	313.370544
10015.693623	315.338989	-167.302750	303.785492
10015.696955	314.111633	-166.016953	295.486267
10015.700303	312.066040	-164.322037	287.011688
10015.703618	309.377533	-163.679138	279.004700
10015.706951	307.273529	-162.101105	270.647003
10015.710287	304.585022	-160.932205	262.873749
10015.713621	302.773224	-160.172409	255.042068
10015.716953	300.260071	-158.302155	247.677963
10015.720289	298.156036	-156.957916	240.547638
10015.723613	295.701324	-155.905899	233.709534
10015.726954	292.954407	-154.444778	226.812958
10015.730286	290.616608	-152.983643	221.962006
10015.733615	288.570984	-151.347168	215.416122
10015.736985	286.116302	-150.119812	209.279373
10015.740285	283.661591	-148.132660	203.551727
10015.743618	280.856232	-147.139099	197.999405
10015.747372	278.635315	-145.736420	193.557571
10015.750703	276.355927	-143.924606	187.829926
10015.754052	274.018127	-143.047928	182.920502
10015.757395	272.556976	-141.060776	178.478653
10015.760733	269.576263	-139.774994	173.919922
10015.764036	267.238434	-138.255402	169.127411
10015.767376	265.835754	-136.911163	164.218002
10015.770704	262.621277	-135.216248	160.126816
10015.774031	260.809479	-134.047333	155.392746
10015.777372	258.646973	-132.352417	151.652237
10015.781179	256.309174	-131.709518	148.203964
10015.784479	254.205139	-130.774399	144.229691
10015.787876	251.633545	-128.787262	140.489182
10015.791211	249.237305	-127.969025	136.865570
10015.794462	247.776154	-126.975449	133.183517
10015.797791	245.263000	-125.864990	129.092331
10015.801132	243.801880	-124.462311	126.111641
10015.804500	241.171844	-123.351852	124.007607
10015.807809	238.775574	-122.416718	120.325539
10015.811211	236.905304	-121.773819	116.760384
10015.814572	234.742828	-120.897141	113.487434
10015.818263	232.989471	-118.734650	110.331390
10015.821602	231.119232	-118.617767	108.285805
10015.824935	228.781403	-117.974876	105.305084
10015.828291	226.443604	-116.630623	103.142601
10015.831692	224.807129	-115.578613	100.454124
10015.834996	223.112213	-114.643486	98.350090
10015.838309	221.943298	-114.175926	96.304497
10015.841642	220.189941	-112.831673	93.849800
10015.844988	218.845703	-111.896545	91.862648
10015.848318	216.332550	-111.136765	89.700180
10015.852066	215.280518	-110.435425	88.531273
10015.855411	213.819397	-108.915840	86.544128
10015.858735	212.475159	-108.565170	84.264755
10015.862104	210.546478	-107.571602	83.095848
10015.865466	209.319122	-106.636475	81.050270
10015.868766	208.793091	-106.052017	80.115143
10015.872060	206.279968	-105.701347	78.011101
10015.875391	204.877258	-104.590881	76.374634
10015.878686	204.292816	-104.532440	75.556396
10015.882130	203.123901	-103.246635	74.270599
10015.885862	202.071899	-102.077728	72.926361
10015.889175	200.961426	-101.668617	71.348335
10015.892498	200.026306	-101.727066	70.354767
10015.895784	199.324951	-101.551720	69.361198
10015.899137	198.331390	-100.675041	69.010521
10015.902463	197.688477	-100.032150	67.607834
10015.905787	196.694916	-99.155457	66.672707
10015.909096	195.759796	-99.389252	66.205147
10015.912921	195.759796	-98.044998	64.919350
10015.916236	194.298645	-97.869667	64.685570
10015.919523	193.772644	-96.817642	64.685570
10015.922896	192.895966	-97.343658	63.575104
10015.926182	192.954407	-96.642311	62.347755
10015.929520	192.369965	-96.466980	61.529518
10015.932818	191.493286	-95.882523	61.354179
10015.936164	190.908813	-95.999420	60.711288
10015.939545	190.558136	-95.531853	59.250145
10015.943294	189.330811	-95.414955	58.782585
10015.946923	188.863251	-95.707184	58.373466
10015.950264	188.804779	-94.830513	58.081245
10015.953625	188.103455	-94.421394	57.438339
10015.956929	187.635895	-94.012268	56.678551
10015.960269	186.934540	-93.836937	57.146118
10015.963596	186.408539	-94.070717	55.801872
10015.966921	186.291656	-93.194038	54.691414
10015.970261	186.057861	-94.012268	56.035652
10015.973597	185.648743	-93.661606	55.334305
10015.976926	185.064301	-93.369377	54.516075
10015.980262	184.713623	-93.603157	54.048508
10015.983597	184.713623	-92.901810	53.697838
10015.986919	184.596741	-93.194038	53.756287
10015.990263	184.187622	-93.369377	54.223846
10015.993621	184.012268	-92.901810	53.639397
10015.996965	184.362946	-93.194038	54.165405
10016.000687	184.362946	-92.668030	54.223846
10016.004020	184.655182	-93.427826	54.340744
10016.007348	184.655182	-92.492699	54.399185
10016.010679	184.830505	-93.135590	55.042084
10016.014014	185.298065	-93.778488	54.632965
10016.017347	185.590302	-93.310928	54.808304
10016.020691	185.999420	-93.720055	55.626541
10016.024058	186.174744	-93.836937	55.626541
10016.027399	186.817657	-93.603157	55.743431
10016.031259	186.525421	-93.603157	56.444771
10016.034435	187.109863	-93.953835	56.912338
10016.037774	187.285217	-94.246048	56.795448
10016.041128	187.285217	-94.713615	56.853889
10016.044448	188.220337	-94.713615	58.139687
10016.047793	189.155457	-94.713615	58.490356
10016.051179	189.272369	-95.707184	60.126823
10016.054539	190.441254	-96.116302	59.659264
10016.057824	190.675049	-96.817642	60.828178
10016.061545	191.317932	-96.525429	60.711288
10016.064899	192.136169	-97.577438	61.529518
10016.068277	192.954407	-97.811218	62.055527
10016.071654	193.889526	-97.986549	63.808884
10016.075013	194.357086	-98.103447	63.984222
10016.078297	194.590881	-98.687897	64.451790
10016.081602	195.467560	-99.506134	65.503799
10016.084922	196.636475	-99.739922	66.789597
10016.088288	197.630035	-100.265930	66.848045
10016.091669	198.214508	-99.973701	68.835182
10016.094975	199.208069	-100.908829	69.185852
10016.098743	199.324951	-102.077728	69.828758
10016.102100	200.961426	-102.311516	70.763885
10016.105416	201.428986	-103.012856	71.874344
10016.108810	202.130341	-103.714203	72.926361
10016.112101	203.825256	-103.831100	74.095268
10016.115434	204.409698	-104.883110	74.621277
10016.118718	206.455292	-105.058441	77.718880
10016.122060	207.624207	-105.818237	79.063126
10016.125431	208.851562	-106.987137	80.465813
10016.128760	210.195801	-107.337814	81.868500
10016.132513	211.481598	-108.682060	82.978958
10016.135811	212.708923	-108.798958	85.433662
10016.139134	214.754547	-109.675629	86.836349
10016.142412	216.215668	-111.312103	89.174171
10016.145737	218.319702	-112.013443	90.167747
10016.149060	218.611908	-112.831673	93.382233
10016.152410	221.241974	-113.533020	95.369370
10016.156212	222.527771	-114.818817	97.940979
10016.159534	223.755096	-115.578613	100.045013
10016.162826	225.683807	-116.513741	102.032143
10016.166104	227.670959	-117.565750	105.480415
10016.169417	229.248962	-118.150208	108.753365
10016.172777	231.294556	-119.202225	110.565170
10016.176148	233.573944	-120.429565	113.896561
10016.179441	235.093506	-121.014038	116.760384
10016.182767	237.314423	-122.767380	119.215080
10016.186515	238.950897	-123.410278	122.312691
10016.190259	241.639404	-124.403854	125.585625
10016.193572	243.451202	-125.631210	129.150787
10016.196901	245.204559	-126.624786	132.423721
10016.200235	247.542389	-127.793686	135.813553
10016.203566	249.821747	-129.430161	139.963181
10016.206903	251.867310	-130.482178	143.645233
10016.210237	253.971375	-131.884857	146.216827
10016.213570	255.900055	-133.112213	151.360031
10016.216902	258.822327	-134.748688	154.340729
10016.220254	260.049683	-135.800705	158.431900
10016.223583	262.095245	-136.911163	163.282867
10016.226905	264.199310	-138.489182	167.549377
10016.230231	266.595551	-139.716537	172.108109
10016.233570	269.225586	-141.177673	175.965515
10016.236901	271.446503	-142.755692	180.465805
10016.240228	273.550568	-144.216827	186.076553
10016.243566	275.070129	-145.210403	191.862656
10016.247324	277.758606	-146.554642	196.538284
10016.250665	279.921112	-147.314438	202.265930
10016.253994	282.025116	-149.243134	207.701355
10016.257364	284.362915	-150.821152	213.721207
10016.260680	286.642303	-152.691406	220.734650
10016.264017	289.272339	-153.217422	226.520752
10016.267350	291.785492	-154.737000	232.365280
10016.270669	293.831085	-156.490356	239.086487
10016.273982	296.870239	-157.717712	246.392166
10016.277742	298.740509	-159.003510	253.873154
10016.281068	301.312073	-160.406189	261.529541
10016.284436	303.825256	-161.633545	269.127411
10016.287770	305.578613	-162.627121	277.718903
10016.291177	307.682617	-164.263596	286.310364
10016.294486	310.663361	-165.783157	294.726471
10016.297739	311.890686	-166.718292	303.317932
10016.301119	313.702515	-167.770309	312.084747
10016.304408	316.624786	-168.997665	322.371155
10016.307771	317.676788	-170.283463	330.261261
10016.311120	319.254822	-171.510818	341.365875
10016.314953	321.241974	-172.738174	350.834015
10016.318297	323.112213	-173.731735	361.120392
10016.321616	324.339539	-174.374634	371.640594
10016.324933	325.333130	-175.368210	382.277618
10016.328278	325.859131	-175.952652	393.089996
10016.331603	327.261810	-176.186447	403.493317
10016.334982	328.430725	-177.121567	414.364136
10016.338291	328.489166	-177.647583	426.170105
10016.341591	329.073639	-178.465805	437.683807
10016.344935	329.190521	-178.699585	449.022247
10016.348291	329.248962	-179.284042	460.126831
10016.352086	328.898315	-179.693161	473.569305
10016.355381	328.839844	-180.102280	485.492126
10016.358749	327.904724	-180.628281	497.824097
10016.362115	326.443604	-180.628281	510.214508
10016.365413	325.040894	-180.277618	522.546448
10016.368805	323.638214	-179.576279	534.995300
10016.372086	321.534180	-179.400925	548.203979
10016.375378	319.488586	-179.050262	561.178833
10016.378792	316.507874	-178.232025	573.978333
10016.382160	313.819397	-177.413788	586.427246
10016.385458	310.897125	-176.361771	599.752747
10016.388834	307.390381	-174.959091	612.318542
10016.392579	304.175903	-174.257736	625.468689
10016.395864	299.675629	-172.504395	638.911133
10016.399234	294.824677	-171.160141	652.528931
10016.402582	290.032135	-168.763885	664.977722
10016.405913	285.005859	-166.250732	677.718811
10016.409224	279.804199	-163.503799	691.278198
10016.412607	273.083008	-160.990646	703.025696
10016.415911	267.180023	-157.834595	714.948547
10016.419265	260.926361	-154.912338	727.397400
10016.423016	253.270020	-150.938049	739.320251
10016.426338	245.905884	-147.489777	750.717102
10016.429644	237.723572	-143.807724	761.646362
10016.432938	229.365875	-138.781418	773.043213
10016.436366	220.774414	-135.099365	783.914062
10016.439674	212.416718	-130.423737	793.849792
10016.442969	201.721222	-126.274109	804.311523
10016.446721	192.662201	-120.546463	811.851013
10016.450240	182.434235	-115.111053	821.202271
10016.453545	171.914093	-110.084747	829.384583
10016.456881	160.926361	-104.181763	836.573364
10016.460214	149.587967	-98.921677	844.638794
10016.463544	138.015778	-92.668030	850.191101
10016.466876	127.144943	-86.823494	855.684998
10016.470209	115.046753	-81.271187	860.360596
10016.473545	103.416130	-74.725311	865.036255
10016.476876	91.610168	-68.763878	868.893555
10016.480202	78.518402	-63.386909	871.874268
10016.483545	66.595558	-56.782585	873.919922
10016.486876	54.614258	-50.645821	875.907104
10016.490261	42.457626	-43.749271	876.608398
10016.493986	29.190531	-37.320282	876.199280
10016.497298	15.748099	-30.774399	875.907104
10016.500630	3.416130	-24.170078	875.147278
10016.503972	-9.032730	-17.507305	873.744568
10016.507296	-21.423145	-11.136762	870.120972
10016.510634	-33.696671	-5.058445	868.659851
10016.513963	-46.203979	1.721215	865.328491
10016.517320	-57.893044	8.734658	859.951477
10016.520657	-69.815895	16.390999	855.217407
10016.524481	-81.797195	22.936878	850.074158
10016.527723	-93.661606	28.956749	843.762085
10016.531050	-104.999992	35.677967	837.333191
10016.534386	-116.104622	42.574520	829.559875
10016.537741	-126.917000	49.120396	822.078857
10016.541101	-137.612518	55.023376	813.896545
10016.544485	-147.840454	61.861481	805.480469
10016.547794	-157.425476	67.939804	796.362915
10016.551081	-167.244293	74.836349	785.842773
10016.554859	-176.653992	80.213326	776.374634
10016.558171	-186.122162	85.473412	766.380493
10016.561596	-194.947418	92.194626	754.808289
10016.564915	-202.369965	96.753365	742.885437
10016.568261	-210.961426	102.364113	732.598999
10016.571575	-217.331970	107.390411	720.091736
10016.574893	-224.871429	112.182930	709.513123
10016.578317	-231.241974	116.800117	698.291626
10016.581586	-238.255402	120.832848	685.082947
10016.584962	-243.866180	124.631790	672.867859
10016.588294	-248.658691	129.190536	660.828186
10016.591629	-254.152557	132.755707	649.139099
10016.595037	-259.412628	136.671539	636.222656
10016.598827	-264.205139	139.360031	623.189392
10016.602147	-267.770325	142.399185	611.909424
10016.605433	-271.919952	145.438339	599.285156
10016.608764	-275.660461	148.009933	586.953247
10016.612122	-278.173584	149.821732	574.679687
10016.615479	-281.563446	151.750443	562.639954
10016.618791	-284.135010	153.620682	550.775513
10016.622084	-286.414398	155.490936	539.437134
10016.625387	-288.343079	156.952072	527.105225
10016.629170	-290.213318	157.887192	515.649902
10016.632530	-291.849823	159.348328	503.201019
10016.635858	-292.551147	159.757446	492.680878
10016.639149	-293.544739	160.751022	481.284027
10016.642469	-294.772064	161.160141	469.828796
10016.645838	-294.888947	161.803040	457.555237
10016.649174	-295.648743	162.270599	447.035065
10016.652546	-295.356506	162.270599	436.690216
10016.655837	-294.888947	162.679718	425.877838
10016.659598	-295.122742	162.504379	415.065460
10016.662886	-294.304504	162.971939	405.363556
10016.666245	-293.603180	162.738159	394.726501
10016.669587	-292.784943	163.264175	386.018127
10016.672881	-291.966675	162.504379	375.673309
10016.676185	-291.440674	162.855057	366.205170
10016.679489	-290.271790	161.861481	356.444794
10016.683275	-288.109314	162.212158	347.794861
10016.686857	-287.057281	161.744598	338.092926
10016.690186	-285.011719	160.926361	328.975464
10016.693525	-283.667450	159.991226	320.734650
10016.696852	-282.323212	159.406784	312.493866
10016.700189	-280.160736	158.939224	304.253082
10016.703518	-278.173584	158.004089	296.655182
10016.706858	-275.718903	157.478088	288.940399
10016.710209	-273.790192	156.133850	281.225616
10016.713533	-271.218597	154.964920	274.036835
10016.716853	-269.523682	154.555817	266.205170
10016.720188	-267.010529	153.503799	259.074829
10016.723520	-264.205139	152.101120	253.230270
10016.726848	-261.925781	151.399765	245.749252
10016.730187	-260.756897	149.997086	239.612503
10016.733520	-257.776184	148.945053	233.125061
10016.737270	-255.847473	148.126831	227.806549
10016.740631	-253.977203	146.957932	222.897125
10016.743948	-251.405640	145.379898	217.753937
10016.747277	-249.126251	144.035645	211.500290
10016.750621	-246.320862	142.925186	205.831070
10016.753982	-243.924591	141.522507	201.973709
10016.757291	-242.112823	140.996490	196.772049
10016.760624	-240.651672	139.710693	191.628860
10016.763940	-238.722961	138.483353	186.836349
10016.767694	-235.917603	137.489777	182.978958
10016.771024	-234.222687	136.087097	178.420212
