time (s)	det(V)
7621.562050	-0.739035	
7621.563539	-0.615829	
7621.565112	-0.470330	
7621.566628	-0.369420	
7621.568218	-0.230206	
7621.569707	-0.119165	
7621.571273	0.012763	
7621.572792	0.097833	
7621.574384	0.294862	
7621.575908	0.398144	
7621.577427	0.515457	
7621.578998	0.648105	
7621.580514	0.790647	
7621.582105	0.877570	
7621.583586	1.019730	
7621.585200	1.157583	
7621.586685	1.223821	
7621.588287	1.389651	
7621.589791	1.470958	
7621.591357	1.615124	
7621.592882	1.635144	
7621.594467	1.635587	
7621.596207	1.635439	
7621.597688	1.635599	
7621.599462	1.635583	
7621.600946	1.635571	
7621.602720	1.635543	
7621.604208	1.635427	
7621.605962	1.635499	
7621.607445	1.635531	
7621.609206	1.635660	
7621.610730	1.635491	
7621.612485	1.635672	
7621.613998	1.635547	
7621.615716	1.635745	
7621.617239	1.635563	
7621.618947	1.635716	
7621.620489	1.635471	
7621.622189	1.635737	
7621.623750	1.635632	
7621.625423	1.635567	
7621.626986	1.635483	
7621.628657	1.635829	
7621.630242	1.635515	
7621.631885	1.635616	
7621.633497	1.635543	
7621.635120	1.635741	
7621.636736	1.635571	
7621.638346	1.635656	
7621.640005	1.635539	
7621.641605	1.635781	
7621.643240	1.635628	
7621.644721	1.635684	
7621.646431	1.635660	
7621.647912	1.635579	
7621.649636	1.635644	
7621.651118	1.635527	
7621.652816	1.635656	
7621.654297	1.635596	
7621.656015	1.635696	
7621.657494	1.635648	
7621.659168	1.635644	
7621.660673	1.635604	
7621.662313	1.635720	
7621.663853	1.635628	
7621.665466	1.635704	
7621.667037	1.635495	
7621.668616	1.635608	
7621.670213	1.635640	
7621.671778	1.635825	
7621.673403	1.635551	
7621.674902	1.635684	
7621.676580	1.635616	
7621.678067	1.635503	
7621.679717	1.635753	
7621.681201	1.635563	
7621.682855	1.635664	
7621.684331	1.635454	
7621.685985	1.635664	
7621.687468	1.635551	
7621.689061	1.635616	
7621.690588	1.635616	
7621.692148	1.635648	
7621.693763	1.635604	
7621.695255	1.635555	
7621.696894	1.635640	
7621.698386	1.635688	
7621.700053	1.635515	
7621.701539	1.635563	
7621.703174	1.635523	
7621.704644	1.635527	
7621.706212	1.635503	
7621.707706	1.635523	
7621.709261	1.635660	
7621.710792	1.635559	
7621.712287	1.635632	
7621.713854	1.635592	
7621.715380	1.635596	
7621.716979	1.635447	
7621.718480	1.635523	
7621.720054	1.635515	
7621.721577	1.635576	
7621.723174	1.635620	
7621.724646	1.635459	
7621.726211	1.635551	
7621.727707	1.635539	
7621.729249	1.635579	
7621.730798	1.635583	
7621.732290	1.635543	
7621.733866	1.635563	
7621.735396	1.635523	
7621.736991	1.635660	
7621.738489	1.635523	
7621.740067	1.635559	
7621.741571	1.635475	
7621.743126	1.635515	
7621.744645	1.635535	
7621.746134	1.635616	
7621.747710	1.635632	
7621.749234	1.635543	
7621.750834	1.635487	
7621.752327	1.635547	
7621.753904	1.635479	
7621.755432	1.635551	
7621.757008	1.635406	
7621.758533	1.635531	
7621.760081	1.635563	
7621.761623	1.635443	
7621.763142	1.635539	
7621.764713	1.635438	
7621.766218	1.635511	
7621.767800	1.635535	
7621.769294	1.635616	
7621.770866	1.635455	
7621.772378	1.635463	
7621.773954	1.635459	
7621.775478	1.635511	
7621.777024	1.635523	
7621.778574	1.635451	
7621.780092	1.635535	
7621.781655	1.635487	
7621.783161	1.635563	
7621.784759	1.635487	
7621.786239	1.635446	
7621.787817	1.635495	
7621.789342	1.635491	
7621.790932	1.635426	
7621.792425	1.635588	
7621.793952	1.635483	
7621.795499	1.635398	
7621.797039	1.635471	
7621.798606	1.635495	
7621.800086	1.635426	
7621.801664	1.635410	
7621.803192	1.635406	
7621.804792	1.635124	
7621.806286	1.634677	
7621.807850	1.619877	
7621.809366	1.543834	
7621.810927	1.484667	
7621.812447	1.428753	
7621.813976	1.401884	
7621.815543	1.322015	
7621.817059	1.254182	
7621.818626	1.227921	
7621.820122	1.187336	
7621.821724	1.126086	
7621.823222	1.046224	
7621.824776	1.040987	
7621.826313	1.031319	
7621.827883	0.987773	
7621.829418	0.929834	
7621.830947	0.890574	
7621.832500	0.880986	
7621.834002	0.825810	
7621.835797	0.810076	
7621.837310	0.760064	
7621.839055	0.742376	
7621.840576	0.721437	
7621.842318	0.696123	
7621.843843	0.638425	
7621.845545	0.662124	
7621.847095	0.582057	
7621.848774	0.597082	
7621.850324	0.543018	
7621.852011	0.558874	
7621.853595	0.474980	
7621.855242	0.536062	
7621.856826	0.503452	
7621.858462	0.491081	
7621.860064	0.451608	
7621.861687	0.478054	
7621.863323	0.455825	
7621.864923	0.456160	
7621.866592	0.421714	
7621.868180	0.445763	
7621.869847	0.424880	
7621.871421	0.430999	
7621.873099	0.355432	
7621.874665	0.414604	
7621.876369	0.388444	
7621.877905	0.389660	
7621.879607	0.342271	
7621.881107	0.355992	
7621.882854	0.357466	
7621.884338	0.331375	
7621.886094	0.338323	
7621.887583	0.311463	
7621.889307	0.336337	
7621.890803	0.277645	
7621.892474	0.343254	
7621.893981	0.318258	
7621.895624	0.314830	
7621.897153	0.290894	
7621.898768	0.301404	
7621.900327	0.218404	
7621.901906	0.289121	
7621.903514	0.214702	
7621.905063	0.261342	
7621.906686	0.215601	
7621.908175	0.242856	
7621.909879	0.215838	
7621.911350	0.251465	
7621.913061	0.230743	
7621.914532	0.219931	
7621.916234	0.214404	
7621.917720	0.155333	
7621.919349	0.212805	
7621.920849	0.174770	
7621.922444	0.187044	
7621.923970	0.166221	
7621.925529	0.173787	
7621.927110	0.151490	
7621.928597	0.135703	
7621.930266	0.131211	
7621.931757	0.122035	
7621.933384	0.148175	
7621.934909	0.129258	
7621.936542	0.105152	
7621.938030	0.071842	
7621.939667	0.108705	
7621.941163	0.058323	
7621.942808	0.089579	
7621.944295	0.085059	
7621.945850	0.089172	
7621.947393	0.106393	
7621.948892	0.054133	
7621.950449	0.054008	
7621.951971	0.056389	
7621.953576	0.052502	
7621.955076	0.025693	
7621.956656	0.052933	
7621.958154	0.066617	
7621.959699	0.074255	
7621.961224	0.014894	
7621.962767	0.026209	
7621.964281	0.017045	
7621.965804	0.021371	
7621.967369	0.060051	
7621.968859	0.013238	
7621.970438	0.001580	
7621.971928	0.034411	
7621.973508	-0.012209	
7621.975015	-0.050631	
7621.976599	-0.016382	
7621.978104	0.028642	
7621.979618	-0.011653	
7621.981210	0.005447	
7621.982697	0.005584	
7621.984285	0.010640	
7621.985803	-0.029096	
7621.987420	0.034914	
7621.988916	-0.027750	
7621.990504	0.029814	
7621.992016	0.019438	
7621.993591	-0.019234	
7621.995124	-0.011806	
7621.996645	-0.002783	
7621.998213	-0.008737	
7621.999733	-0.013490	
7622.001314	0.012408	
7622.002795	-0.022844	
7622.004401	0.024356	
7622.005928	-0.001179	
7622.007538	-0.014981	
7622.009025	-0.017873	
7622.010606	0.001185	
7622.012130	-0.012290	
7622.013693	0.012493	
7622.015223	0.026757	
7622.016748	-0.002215	
7622.018298	0.042117	
7622.019826	0.043575	
7622.021408	0.021206	
7622.022892	0.020372	
7622.024477	0.034012	
7622.025997	0.047499	
7622.027562	0.023466	
7622.029086	0.056268	
7622.030614	0.009194	
7622.032163	0.026350	
7622.033682	0.038540	
7622.035262	0.038717	
7622.036756	0.010732	
7622.038364	0.055072	
7622.039870	0.011868	
7622.041456	0.021008	
7622.042954	0.060136	
7622.044506	0.051841	
7622.046032	0.026129	
7622.047592	0.016968	
7622.049111	0.027752	
7622.050652	0.048135	
7622.052204	0.035780	
7622.053729	0.016577	
7622.055281	0.028799	
7622.056801	0.015474	
7622.058383	0.035478	
7622.059876	-0.009526	
7622.061419	0.035889	
7622.062939	0.016944	
7622.064492	0.030676	
7622.066031	0.020263	
7622.067547	0.024191	
7622.069125	0.021943	
7622.070640	0.032630	
7622.072213	0.052365	
7622.073725	0.025947	
7622.075451	0.054995	
7622.077001	0.002386	
7622.078678	0.039889	
7622.080253	0.041170	
7622.081932	0.031631	
7622.083514	0.002990	
7622.085159	0.026572	
7622.086745	-0.021285	
7622.088386	0.020835	
7622.090013	-0.015774	
7622.091648	0.001165	
7622.093305	-0.008809	
7622.094906	0.009451	
7622.096575	-0.003576	
7622.098174	0.008815	
7622.099823	-0.034042	
7622.101402	-0.001433	
7622.103116	-0.025370	
7622.104671	0.000202	
7622.106385	-0.015536	
7622.107935	0.012336	
7622.109639	-0.013152	
7622.111179	0.000529	
7622.112872	-0.023976	
7622.114393	-0.019307	
7622.116147	-0.023702	
7622.117623	-0.019782	
7622.119396	-0.044693	
7622.120885	-0.040238	
7622.122581	-0.001784	
7622.124061	-0.059304	
7622.125744	-0.008169	
7622.127263	-0.090556	
7622.128899	-0.010606	
7622.130444	-0.037064	
7622.132054	-0.040693	
7622.133643	-0.080779	
7622.135224	-0.017728	
7622.136835	-0.058325	
7622.138397	-0.039537	
7622.140029	-0.045012	
7622.141527	-0.019798	
7622.143225	-0.026441	
7622.144717	-0.022916	
7622.146442	-0.003778	
7622.147915	-0.007105	
7622.149630	-0.010493	
7622.151106	-0.033487	
7622.152752	-0.010167	
7622.154233	-0.030139	
7622.155863	-0.045463	
7622.157365	-0.024451	
7622.158945	-0.029571	
7622.160501	-0.017289	
7622.162033	0.008605	
7622.163649	-0.025857	
7622.165138	-0.025539	
7622.166772	-0.009893	
7622.168292	0.000694	
7622.169920	-0.008148	
7622.171395	-0.018574	
7622.173032	-0.020689	
7622.174510	-0.035618	
7622.176159	-0.007214	
7622.177653	-0.001534	
7622.179281	0.000931	
7622.180806	-0.016318	
7622.182295	-0.028967	
7622.183864	-0.010606	
7622.185377	-0.077560	
7622.186968	-0.058229	
7622.188461	-0.025023	
7622.190034	-0.024096	
7622.191554	-0.041857	
7622.193136	-0.028870	
7622.194619	-0.071051	
7622.196170	-0.049282	
7622.197665	-0.047960	
7622.199207	-0.062873	
7622.200754	-0.049709	
7622.202236	-0.041080	
7622.203825	-0.056839	
7622.205344	-0.114395	
7622.206936	-0.072541	
7622.208423	-0.082523	
7622.209988	-0.099265	
7622.211513	-0.106218	
7622.213116	-0.052915	
7622.214607	-0.128744	
7622.216168	-0.099881	
7622.217686	-0.106508	
7622.219199	-0.127125	
7622.220782	-0.156999	
7622.222277	-0.144165	
7622.223840	-0.192013	
7622.225367	-0.177958	
7622.226930	-0.171239	
7622.228456	-0.231213	
7622.229999	-0.202624	
7622.231556	-0.197177	
7622.233091	-0.216807	
7622.234660	-0.255403	
7622.236159	-0.301857	
7622.237769	-0.242274	
7622.239268	-0.278545	
7622.240848	-0.289700	
7622.242374	-0.320126	
7622.243965	-0.312855	
7622.245465	-0.332448	
7622.247003	-0.334841	
7622.248542	-0.340843	
7622.250058	-0.373791	
7622.251642	-0.380945	
7622.253142	-0.394057	
7622.254719	-0.410211	
7622.256233	-0.448984	
7622.257839	-0.435392	
7622.259336	-0.491885	
7622.260904	-0.463707	
7622.262427	-0.457673	
7622.263969	-0.476819	
7622.265510	-0.505139	
7622.267023	-0.504051	
7622.268592	-0.532398	
7622.270104	-0.538042	
7622.271683	-0.556604	
7622.273176	-0.564455	
7622.274764	-0.580855	
7622.276279	-0.607784	
7622.277881	-0.594652	
7622.279380	-0.625227	
7622.280908	-0.649022	
7622.282476	-0.660479	
7622.283984	-0.645662	
7622.285544	-0.702933	
7622.287043	-0.698981	
7622.288664	-0.756981	
7622.290157	-0.711880	
7622.291769	-0.730672	
7622.293269	-0.749774	
7622.294860	-0.782114	
7622.296354	-0.783411	
7622.297920	-0.800684	
7622.299436	-0.821752	
7622.301007	-0.845068	
7622.302540	-0.892784	
7622.304059	-0.877609	
7622.305642	-0.906770	
7622.307150	-0.953531	
7622.308905	-0.950429	
7622.310435	-0.992912	
7622.312144	-0.979526	
7622.313685	-1.069329	
7622.315357	-1.046653	
7622.316927	-1.083053	
7622.318574	-1.107558	
7622.320175	-1.166915	
7622.321824	-1.193969	
7622.323417	-1.227126	
7622.325056	-1.271752	
7622.326659	-1.335331	
7622.328282	-1.349184	
7622.329949	-1.427225	
7622.331539	-1.465611	
7622.333218	-1.534052	
7622.334795	-1.604809	
7622.336477	-1.610099	
7622.338068	-1.618075	
7622.339751	-1.618175	
7622.341321	-1.618147	
7622.343026	-1.618216	
7622.344565	-1.618272	
7622.346262	-1.618252	
7622.347789	-1.618252	
7622.349521	-1.618240	
7622.351028	-1.618349	
7622.352768	-1.618312	
7622.354264	-1.618296	
7622.356046	-1.618324	
7622.357536	-1.618272	
7622.359243	-1.618324	
7622.360718	-1.618397	
7622.362397	-1.618232	
7622.363902	-1.618357	
7622.365554	-1.618312	
7622.367103	-1.618365	
7622.368720	-1.618232	
7622.370303	-1.618341	
7622.371889	-1.618224	
7622.373495	-1.618333	
7622.375040	-1.618365	
7622.376657	-1.618457	
7622.378150	-1.618409	
7622.379839	-1.618401	
7622.381320	-1.618361	
7622.383042	-1.618433	
7622.384522	-1.618377	
7622.386266	-1.618333	
7622.387747	-1.618461	
7622.389384	-1.618421	
7622.390864	-1.618389	
7622.392497	-1.618312	
7622.393988	-1.618361	
7622.395561	-1.618474	
7622.397100	-1.618449	
7622.398610	-1.618373	
7622.400257	-1.618433	
7622.401746	-1.618457	
7622.403379	-1.618441	
7622.404894	-1.618461	
7622.406541	-1.618409	
7622.408016	-1.618429	
7622.409666	-1.618312	
7622.411141	-1.618369	
7622.412769	-1.618433	
7622.414245	-1.618486	
7622.415888	-1.618465	
7622.417401	-1.618377	
7622.418893	-1.618453	
7622.420478	-1.618474	
7622.422001	-1.618397	
7622.423595	-1.618461	
7622.425080	-1.618401	
7622.426702	-1.618409	
7622.428219	-1.618482	
7622.429802	-1.618429	
7622.431272	-1.618381	
7622.432844	-1.618345	
7622.434335	-1.618361	
7622.435883	-1.618417	
7622.437412	-1.618466	
7622.438911	-1.618457	
7622.440479	-1.618482	
7622.441999	-1.618461	
7622.443609	-1.618393	
7622.445099	-1.618413	
7622.446665	-1.618486	
7622.448185	-1.618389	
7622.449776	-1.618465	
7622.451255	-1.618514	
7622.452824	-1.618389	
7622.454338	-1.618510	
7622.455842	-1.618474	
7622.457444	-1.618429	
7622.458947	-1.618490	
7622.460543	-1.618518	
7622.462055	-1.618361	
7622.463599	-1.618457	
7622.465138	-1.618469	
7622.466684	-1.618417	
7622.468228	-1.618534	
7622.469742	-1.618469	
7622.471306	-1.618445	
7622.472840	-1.618377	
7622.474410	-1.618490	
7622.475902	-1.618401	
7622.477477	-1.618562	
7622.479002	-1.618482	
7622.480572	-1.618401	
7622.482108	-1.618393	
7622.483645	-1.618449	
7622.485196	-1.618490	
7622.486711	-1.618457	
7622.488273	-1.618542	
7622.489768	-1.618397	
7622.491378	-1.618437	
7622.492866	-1.618457	
7622.494435	-1.618522	
7622.495948	-1.618453	
7622.497532	-1.618341	
7622.499036	-1.618413	
7622.500615	-1.618393	
7622.502138	-1.618421	
7622.503680	-1.618445	
7622.505243	-1.618421	
7622.506731	-1.618357	
7622.508304	-1.618421	
7622.509812	-1.618409	
7622.511411	-1.618312	
7622.512904	-1.618457	
7622.514472	-1.618409	
7622.515995	-1.618474	
7622.517567	-1.618482	
7622.519089	-1.618369	
7622.520617	-1.618401	
7622.522172	-1.618482	
7622.523712	-1.618385	
7622.525283	-1.618397	
7622.526760	-1.618361	
7622.528340	-1.618401	
7622.529857	-1.618425	
7622.531466	-1.618369	
7622.532956	-1.618461	
7622.534518	-1.618329	
7622.536038	-1.618409	
7622.537605	-1.618397	
7622.539127	-1.618437	
7622.540650	-1.618425	
7622.542186	-1.618308	
7622.543692	-1.618393	
7622.545289	-1.618260	
7622.546777	-1.618357	
7622.548356	-1.618405	
7622.549883	-1.618272	
7622.551529	-1.618248	
7622.553181	-1.617309	
7622.554788	-1.554850	
7622.556459	-1.384194	
7622.558043	-1.277529	
7622.559729	-1.197417	
7622.561296	-1.043612	
7622.562992	-0.928664	
7622.564544	-0.833922	
7622.566238	-0.716621	
7622.567777	-0.611744	
7622.569493	-0.501529	
7622.571014	-0.425076	
7622.572786	-0.292850	
7622.574264	-0.225327	
7622.576040	-0.105622	
7622.577518	-0.008491	
7622.579271	0.108604	
7622.580747	0.208346	
7622.582534	0.294874	
7622.584021	0.370973	
7622.585797	0.477264	
7622.587295	0.590460	
7622.589059	0.702145	
7622.590567	0.756612	
7622.592295	0.899811	
7622.593815	0.943619	
7622.595451	1.053423	
7622.597015	1.099913	
7622.598609	1.248788	
7622.600208	1.306776	
7622.601784	1.421361	
7622.603410	1.516087	
7622.604964	1.595776	
7622.606616	1.632844	
7622.608112	1.635515	
7622.609806	1.635511	
7622.611288	1.635620	
7622.613025	1.635515	
7622.614497	1.635479	
7622.616227	1.635608	
7622.617706	1.635527	
7622.619410	1.635592	
7622.620888	1.635455	
7622.622584	1.635495	
7622.624071	1.635475	
7622.625654	1.635584	
7622.627204	1.635471	
7622.628751	1.635588	
7622.630344	1.635652	
7622.631841	1.635535	
7622.633482	1.635503	
7622.634968	1.635539	
7622.636617	1.635515	
7622.638101	1.635579	
7622.639732	1.635684	
7622.641203	1.635547	
7622.642843	1.635555	
7622.644321	1.635543	
7622.645944	1.635503	
7622.647446	1.635527	
7622.649046	1.635592	
7622.650575	1.635507	
7622.652126	1.635587	
7622.653690	1.635684	
7622.655207	1.635596	
7622.656794	1.635555	
7622.658293	1.635612	
7622.659939	1.635563	
7622.661417	1.635608	
7622.662979	1.635531	
7622.664468	1.635463	
7622.666017	1.635475	
7622.667525	1.635483	
7622.669042	1.635535	
7622.670613	1.635608	
7622.672104	1.635531	
7622.673706	1.635483	
7622.675201	1.635547	
7622.676785	1.635475	
7622.678282	1.635596	
7622.679876	1.635450	
7622.681369	1.635523	
7622.682932	1.635596	
7622.684468	1.635535	
7622.686015	1.635640	
7622.687545	1.635495	
7622.689033	1.635612	
7622.690625	1.635692	
7622.692113	1.635632	
7622.693715	1.635620	
7622.695200	1.635422	
7622.696775	1.635583	
7622.698305	1.635507	
7622.699838	1.635636	
7622.701388	1.635559	
7622.702913	1.635587	
7622.704482	1.635668	
7622.705979	1.635543	
7622.707547	1.635559	
7622.709076	1.635612	
7622.710662	1.635491	
7622.712165	1.635531	
7622.713725	1.635600	
7622.715251	1.635491	
7622.716822	1.635563	
7622.718345	1.635515	
7622.719852	1.635467	
7622.721433	1.635467	
7622.722922	1.635491	
7622.724506	1.635547	
7622.726030	1.635499	
7622.727627	1.635511	
7622.729126	1.635563	
7622.730690	1.635527	
7622.732223	1.635523	
7622.733775	1.635527	
7622.735315	1.635459	
7622.736834	1.635584	
7622.738418	1.635483	
7622.739935	1.635604	
7622.741510	1.635547	
7622.742997	1.635499	
7622.744591	1.635547	
7622.746102	1.635503	
7622.747670	1.635495	
7622.749193	1.635527	
7622.750740	1.635624	
7622.752269	1.635527	
7622.753785	1.635475	
7622.755354	1.635580	
7622.756876	1.635499	
7622.758464	1.635543	
7622.759949	1.635479	
7622.761531	1.635499	
7622.763056	1.635600	
7622.764649	1.635640	
7622.766149	1.635531	
7622.767710	1.635491	
7622.769249	1.635479	
7622.770754	1.635720	
7622.772323	1.635688	
7622.773835	1.635555	
7622.775443	1.635527	
7622.776932	1.635503	
7622.778520	1.635507	
7622.780039	1.635394	
7622.781644	1.635559	
7622.783134	1.635543	
7622.784699	1.635576	
7622.786213	1.635463	
7622.787785	1.635600	
7622.789315	1.635519	
7622.790831	1.635688	
7622.792405	1.635555	
7622.793910	1.635507	
7622.795663	1.635559	
7622.797173	1.635459	
7622.798894	1.635604	
7622.800415	1.635563	
7622.802121	1.635680	
7622.803676	1.635483	
7622.805358	1.635753	
7622.806920	1.635491	
7622.808604	1.635712	
7622.810180	1.635435	
7622.811842	1.635724	
7622.813419	1.635471	
7622.815072	1.635640	
7622.816678	1.635374	
7622.818309	1.635700	
7622.819937	1.635350	
7622.821564	1.635656	
7622.823207	1.635305	
7622.824814	1.635692	
7622.826464	1.635261	
7622.828055	1.635692	
7622.829739	1.635289	
7622.831211	1.633988	
7622.832922	1.633102	
7622.834401	1.597878	
7622.836104	1.548100	
7622.837589	1.454829	
7622.839284	1.398984	
7622.840769	1.357931	
7622.842443	1.317338	
7622.843938	1.297434	
7622.845581	1.271242	
7622.847114	1.154328	
7622.848732	1.189145	
7622.850298	1.117441	
7622.851895	1.149277	
7622.853481	1.094532	
7622.855040	1.082527	
7622.856647	1.041374	
7622.858182	1.018578	
7622.859842	1.003242	
7622.861315	0.975950	
7622.863032	0.955857	
7622.864506	0.921411	
7622.866150	0.919332	
7622.867630	0.922365	
7622.869260	0.894058	
7622.870745	0.872785	
7622.872354	0.850029	
7622.873878	0.832224	
7622.875435	0.821166	
7622.877006	0.816062	
7622.878498	0.827692	
7622.880162	0.777612	
7622.881649	0.771791	
7622.883291	0.794478	
7622.884808	0.748390	
7622.886436	0.738477	
7622.887910	0.696965	
7622.889558	0.738235	
7622.891037	0.706729	
7622.892596	0.720583	
7622.894091	0.702818	
7622.895583	0.684783	
7622.897172	0.687933	
7622.898671	0.644818	
