time (s)	magX	magY	magZ
5562.072356	-371.686157	205.929276	266.380493
5562.075691	-376.303314	207.273529	273.627716
5562.079029	-380.569885	208.091766	283.095856
5562.082360	-385.011719	209.962006	291.395111
5562.085695	-389.745789	212.007614	299.226776
5562.089058	-393.135590	213.234940	308.110474
5562.092362	-396.467010	214.812988	317.987732
5562.096114	-400.850372	216.157211	326.754547
5562.099445	-404.883118	217.676804	336.807159
5562.102791	-409.441833	218.027466	346.333740
5562.106109	-413.825256	219.722382	357.087677
5562.109473	-417.857971	221.125061	366.438934
5562.112816	-421.247803	222.761551	378.244904
5562.116133	-425.338959	223.872009	386.953247
5562.119467	-429.488586	224.748672	397.239624
5562.122784	-432.878418	225.800690	408.519592
5562.126538	-435.683807	226.969620	419.682648
5562.129868	-439.015198	227.846283	431.254822
5562.133252	-441.995941	229.424316	443.469910
5562.136552	-446.671570	229.424316	454.866730
5562.139948	-449.360016	230.710114	467.023376
5562.143289	-452.983643	231.645233	480.115173
5562.146538	-455.438354	232.580368	492.096466
5562.149873	-457.659271	233.573929	505.363556
5562.153199	-461.341309	233.983047	518.747498
5562.157030	-462.919373	235.502640	531.839233
5562.160390	-465.549408	235.794846	546.041504
5562.163325	-467.711853	235.561081	560.477478
5562.167067	-469.523712	236.379303	575.088806
5562.170395	-471.160156	237.022202	590.284607
5562.173754	-471.978363	236.203964	605.772644
5562.177106	-473.030396	235.619507	622.487976
5562.180449	-475.251312	234.859726	637.917603
5562.183705	-474.842194	234.859726	655.568115
5562.187068	-475.485107	233.515488	671.757446
5562.190469	-475.485107	231.879013	690.284607
5562.193750	-475.134460	230.885452	707.584412
5562.197148	-475.426666	228.547638	726.286926
5562.200870	-473.790192	226.443588	745.866089
5562.204177	-472.270630	224.573334	763.808899
5562.207500	-470.692566	221.884857	782.920532
5562.210796	-468.296326	218.261261	802.850403
5562.214134	-466.192291	214.696091	822.371094
5562.217411	-462.685577	210.488022	842.300964
5562.220764	-459.529541	206.279953	862.406189
5562.224511	-455.905884	202.071884	880.699585
5562.227937	-451.639404	197.045593	900.863220
5562.231236	-445.911774	191.551727	920.793091
5562.234545	-440.359436	185.531860	941.132019
5562.237913	-435.333130	179.745758	960.594360
5562.241257	-428.787262	174.251907	979.881348
5562.244544	-422.416718	167.764465	998.233154
5562.247915	-414.935730	162.036819	1018.221558
5562.251216	-406.519592	155.607834	1036.631714
5562.254579	-398.454132	148.945053	1053.639404
5562.258346	-389.745789	141.230270	1073.218628
5562.261657	-380.394501	135.327301	1090.518433
5562.265013	-370.984802	127.144943	1106.590942
5562.268332	-360.464661	119.956161	1124.416748
5562.271720	-349.301575	112.708939	1141.482666
5562.275027	-338.255402	105.169487	1158.139648
5562.278341	-325.631226	97.045586	1174.095215
5562.281624	-312.948578	88.921677	1188.472778
5562.284977	-299.681488	80.973114	1202.733521
5562.288758	-286.180603	73.024544	1217.052612
5562.292344	-272.212158	64.199295	1231.780762
5562.295691	-257.659271	55.666275	1244.112793
5562.299005	-242.405029	46.431911	1256.970703
5562.302333	-226.975464	37.957336	1269.010498
5562.305669	-211.019867	28.664524	1281.225586
5562.309002	-194.129150	19.254822	1290.985962
5562.312332	-177.238464	8.150205	1301.506104
5562.315672	-159.938629	-1.727060	1311.383423
5562.319005	-142.229675	-11.195209	1319.799438
5562.322340	-123.468727	-20.955582	1327.864990
5562.325664	-105.175346	-30.891293	1334.586182
5562.328999	-85.713028	-41.879021	1339.203369
5562.332338	-66.835182	-52.808300	1343.995972
5562.335663	-48.191116	-63.153130	1348.554687
5562.339479	-28.144360	-73.731735	1350.191040
5562.342779	-9.266510	-84.076561	1351.535400
5562.346102	10.078899	-94.655174	1352.470459
5562.349442	30.359438	-104.590881	1352.178223
5562.352749	49.354179	-114.526588	1350.132568
5562.356096	68.407364	-123.877838	1348.028564
5562.359426	86.992981	-133.755112	1344.580322
5562.362798	105.111046	-142.229691	1341.015259
5562.366086	123.462883	-151.288727	1333.943359
5562.369874	141.054932	-159.938629	1326.111572
5562.373258	158.354767	-168.413208	1317.870728
5562.376585	174.953247	-176.127991	1310.448242
5562.379939	191.727051	-183.842789	1301.973633
5562.383182	208.150208	-190.914658	1291.628906
5562.386505	223.872009	-197.694336	1280.524170
5562.389840	239.593811	-203.538849	1269.887207
5562.393204	254.029785	-209.909393	1258.548828
5562.396532	267.413788	-215.870850	1246.099854
5562.399932	281.089996	-220.429565	1232.423706
5562.403265	294.649323	-225.864990	1218.805908
5562.406979	307.565765	-229.547058	1206.006348
5562.410303	320.774414	-234.222687	1191.219727
5562.413636	332.872559	-238.547638	1176.491455
5562.417011	343.801880	-242.054352	1162.113892
5562.420343	355.140259	-244.976624	1146.450562
5562.423674	366.595551	-248.658691	1130.085937
5562.426978	376.472809	-251.288696	1113.312134
5562.430339	386.583862	-254.503204	1096.012329
5562.434110	396.110443	-257.191681	1078.478638
5562.437431	405.111053	-260.055542	1061.003418
5562.440721	413.644073	-262.276459	1042.768555
5562.444048	421.066620	-264.438934	1024.767334
5562.447350	429.365845	-265.490936	1005.831116
5562.450717	435.677979	-267.594971	988.122131
5562.454083	443.451172	-268.413208	968.484436
5562.457389	449.412598	-269.991241	949.314453
5562.460711	455.198669	-271.627686	929.326111
5562.464083	460.926361	-272.621277	911.441833
5562.467901	465.309723	-273.731750	892.505493
5562.471221	469.810028	-274.725311	873.627747
5562.474529	473.784332	-276.069550	854.223755
5562.477843	477.583282	-275.777313	836.105774
5562.481152	480.213318	-275.894226	817.403259
5562.484445	482.375793	-276.712463	799.752747
5562.487840	485.181152	-277.121582	781.517822
5562.491132	486.876068	-275.835754	764.217957
5562.494878	488.337189	-276.478668	746.918152
5562.498222	489.564575	-275.601990	729.326111
5562.501587	489.973694	-275.368195	713.195190
5562.504890	490.032104	-274.316193	698.525391
5562.508216	490.733490	-273.439514	683.154236
5562.511557	491.084167	-272.562836	667.841614
5562.514869	490.032104	-271.393921	653.347168
5562.518192	490.382843	-270.283478	637.683777
5562.521940	489.915253	-268.939209	624.066040
5562.525651	488.629456	-267.361206	610.915833
5562.528981	487.986542	-266.075409	597.298035
5562.532318	486.876068	-264.497375	584.147827
5562.535649	486.408539	-263.211578	571.056091
5562.538998	485.122742	-261.282898	558.198120
5562.542348	482.843353	-259.763306	546.859680
5562.545644	482.083588	-257.425476	535.229065
5562.548977	480.622437	-256.081238	523.247803
5562.552309	478.635284	-254.269440	513.195190
5562.555660	476.589691	-252.340729	501.330780
5562.558977	474.836365	-250.762695	490.050873
5562.562317	472.206329	-248.483337	479.296906
5562.565647	469.985352	-247.197540	468.484528
5562.568978	468.582703	-244.801300	457.321442
5562.572313	466.069519	-242.814148	447.268860
5562.575645	463.147278	-240.008774	436.398010
5562.578970	460.751038	-238.956741	427.046783
5562.582736	458.120972	-237.261826	416.994171
5562.586116	455.490936	-235.800705	407.175354
5562.589427	452.627106	-233.813553	397.531891
5562.592753	450.347717	-231.826416	388.297516
5562.596173	448.594391	-230.482178	379.180023
5562.599423	445.146088	-228.319702	370.588562
5562.602730	441.347137	-227.443008	362.055542
5562.606056	439.476898	-225.046768	353.990082
5562.609399	436.320831	-223.059616	345.866180
5562.613183	432.931000	-221.715363	338.677399
5562.616511	430.359436	-220.020447	330.495026
5562.619930	427.261810	-218.851547	323.306274
5562.623235	425.157806	-216.922836	315.942169
5562.626553	422.469299	-215.344818	308.811829
5562.629854	419.605499	-213.825256	302.967285
5562.633154	416.566315	-212.481003	297.005859
5562.636481	414.520721	-210.727661	291.044403
5562.639842	411.715363	-209.558731	285.433655
5562.643186	409.494446	-207.571594	280.173615
5562.646586	406.455261	-206.987152	275.965515
5562.650327	404.643494	-204.824677	270.471649
5562.653643	402.071869	-203.188187	265.679138
5562.656998	400.435425	-201.434830	261.471069
5562.660373	397.746918	-200.265915	256.737000
5562.663712	395.350647	-198.687897	252.879593
5562.667009	393.421967	-197.518997	248.963760
5562.670332	391.434814	-195.999420	244.814133
5562.673641	389.564575	-194.655167	240.664505
5562.676942	388.278778	-193.427811	237.566925
5562.680325	385.707184	-191.732910	234.060196
5562.684084	383.544708	-190.622437	231.254822
5562.687396	381.732880	-189.102859	228.157211
5562.690748	379.570435	-188.226181	224.533600
5562.694043	378.635315	-187.349503	222.429565
5562.697448	376.122131	-186.180603	219.098190
5562.700710	374.719452	-184.193451	215.182358
5562.704017	373.024536	-183.141449	211.850952
5562.707774	371.738739	-181.738754	209.279373
5562.711134	369.284027	-180.511398	206.941559
5562.714402	367.530670	-179.926941	204.369949
5562.717706	366.420227	-178.582703	201.330811
5562.721031	364.959076	-177.472244	198.525436
5562.724327	362.562805	-176.829330	194.025131
5562.727707	361.160126	-175.368210	192.213318
5562.731489	358.705414	-175.192871	190.109283
5562.734759	357.302734	-174.199310	187.771469
5562.738067	356.718292	-173.264175	184.556976
5562.741363	354.380493	-172.329056	182.043823
5562.744683	353.445343	-170.809464	179.706009
5562.747982	351.750427	-170.283463	177.835770
5562.751405	351.049072	-169.874344	176.023956
5562.754688	349.646393	-168.588547	173.744583
5562.758463	348.068359	-167.828766	172.692581
5562.761743	347.659241	-166.952072	170.997650
5562.765066	345.905884	-167.185852	170.413208
5562.768407	345.204559	-166.192291	168.542953
5562.771721	344.269440	-165.140274	168.192276
5562.775058	343.509644	-164.848038	166.146698
5562.778347	342.925171	-164.964935	165.386902
5562.782194	342.516052	-164.322037	164.218002
5562.785653	341.580933	-163.854477	162.990646
5562.788961	341.873169	-163.737579	162.523087
5562.792286	341.171814	-163.562241	162.464630
5562.795626	341.230255	-162.919357	162.055511
5562.798953	340.996490	-162.510223	161.412628
5562.802286	340.821136	-162.101105	161.178833
5562.805622	340.821136	-161.925781	161.120392
5562.808958	340.119812	-161.575104	161.295731
5562.812284	341.054932	-161.049088	161.646408
5562.815620	340.996490	-160.464645	161.178833
5562.818979	340.528931	-160.230865	162.055511
5562.822288	340.821136	-159.529510	161.938629
5562.825621	340.762695	-159.412613	162.172409
5562.829406	340.879608	-159.704849	162.523087
5562.832710	341.171814	-159.354187	161.763290
5562.836042	341.171814	-158.886627	162.581528
5562.839376	341.522491	-158.945053	162.581528
5562.842705	342.574524	-158.828171	162.289291
5562.846040	342.691376	-158.477493	163.399750
5562.849394	343.100525	-158.711273	163.224426
5562.852733	342.983612	-158.535950	162.990646
5562.856057	343.392731	-158.711273	163.107544
5562.859801	343.626526	-158.886627	162.698410
5562.863126	343.860321	-158.477493	163.867325
5562.866461	344.094086	-158.594391	164.042664
5562.869814	344.561646	-158.477493	163.984222
5562.873165	345.613647	-158.594391	164.451782
5562.876535	346.022797	-158.126831	165.153122
5562.879879	345.964325	-158.711273	165.679138
5562.883131	347.133240	-158.594391	167.198700
5562.886463	347.133240	-159.003510	167.900055
5562.890238	348.652832	-159.354187	168.426056
5562.893626	348.828156	-159.412613	168.835175
5562.896963	350.347748	-159.997086	170.705429
5562.900297	351.925781	-159.646408	171.932785
5562.903589	352.627106	-160.230865	174.036819
5562.906936	354.205109	-160.990646	175.790176
5562.910249	355.724701	-160.523087	177.718872
5562.913649	357.244293	-161.458221	179.998245
5562.917059	358.588531	-161.633545	180.758041
5562.920359	359.757446	-162.276443	183.271179
5562.923712	361.686157	-162.218002	185.316772
5562.927074	363.264160	-163.211563	188.531250
5562.930428	364.608398	-163.503799	189.992401
5562.933778	366.478638	-163.737579	193.791336
5562.937537	369.108704	-164.380478	195.953827
5562.940864	370.745178	-164.497375	199.226761
5562.944222	373.316742	-165.140274	201.155441
5562.947517	374.485687	-166.016953	204.837509
5562.950918	376.648163	-166.250732	207.000000
5562.954202	378.635315	-166.016953	210.331375
5562.957542	380.680878	-166.835190	213.721207
5562.960910	382.784912	-167.828766	216.760376
5562.964276	384.830505	-168.354767	220.091751
5562.967613	386.525421	-168.822327	223.364685
5562.970955	389.506104	-169.056107	226.170059
5562.974707	392.486847	-169.348328	229.033905
5562.978136	394.006409	-170.049683	232.014603
5562.981412	395.642883	-170.458786	236.398010
5562.984746	398.623596	-171.218582	239.495605
5562.988087	400.084717	-172.270599	243.528336
5562.991396	402.890137	-172.738174	246.041489
5562.994751	404.877258	-173.497955	251.243118
5562.998056	407.215057	-174.023956	254.866745
5563.001408	409.786682	-175.017532	259.425476
5563.004759	413.234955	-175.251312	263.165985
5563.008060	415.105194	-176.011108	267.549377
5563.011834	417.384583	-177.238464	272.458801
5563.015203	419.956146	-177.764465	276.959106
5563.018928	422.527771	-178.232025	282.277618
5563.022265	425.450043	-179.459381	287.479248
5563.025599	427.904724	-180.511398	291.628876
5563.028935	431.177673	-180.628281	298.116333
5563.032264	433.866150	-181.563416	304.077728
5563.035597	437.255981	-182.440094	309.805389
5563.038982	439.652222	-182.907669	316.234375
5563.042268	442.983643	-184.018127	322.546478
5563.045635	446.022766	-185.070129	328.858582
5563.048926	449.412598	-185.829926	336.573364
5563.052280	452.568634	-186.823502	343.119232
5563.055598	456.075409	-186.881943	351.886047
5563.058931	459.348328	-187.291061	359.425476
5563.062260	463.088806	-187.817078	367.023376
5563.065595	466.127991	-188.810638	374.971954
5563.068925	468.933350	-189.161316	382.686737
5563.072254	473.141449	-188.985977	391.862671
5563.076025	475.537689	-189.862656	401.213928
5563.079347	479.628876	-190.154877	410.798981
5563.082710	482.609558	-190.563995	419.624237
5563.086051	485.473419	-191.440689	429.033905
5563.089415	488.278778	-191.557556	438.209808
5563.092691	491.727020	-191.849792	447.911774
5563.096037	494.473999	-192.375809	457.847443
5563.099353	497.922241	-192.200485	469.127411
5563.102688	500.026276	-193.077148	479.413788
5563.106471	503.883667	-192.609589	489.466431
5563.109801	507.507294	-193.310944	499.869659
5563.113199	509.786682	-193.369370	510.272980
5563.116509	512.182922	-193.427811	521.845093
5563.119849	516.040344	-193.720047	532.306824
5563.123104	517.968994	-193.369370	543.294556
5563.126468	519.897705	-193.427811	553.814697
5563.129775	521.417297	-193.603165	565.211548
5563.133169	523.112244	-193.544708	577.777283
5563.136463	524.865540	-193.544708	589.349487
5563.139862	527.320251	-193.486267	601.739868
5563.143610	529.015198	-192.901810	614.480957
5563.146921	530.417908	-193.603165	626.579163
5563.150283	532.229675	-192.083588	638.618896
5563.153580	533.047974	-191.674454	652.178223
5563.156980	534.567505	-190.973129	665.971313
5563.160285	535.794861	-190.447098	680.582703
5563.163617	536.613098	-189.570419	694.726501
5563.166982	537.255981	-188.343063	708.402710
5563.170295	537.548218	-187.115723	723.013977
5563.173658	537.022217	-185.713043	737.333130
5563.177429	537.489807	-184.193451	752.178223
5563.180706	536.963806	-182.147873	768.952026
5563.184044	536.379333	-179.517822	784.790771
5563.187330	534.918213	-178.290466	800.454102
5563.190752	533.573914	-175.309769	815.299194
5563.194046	531.703674	-172.913498	832.540588
5563.197382	529.774963	-169.640564	848.145569
5563.200718	527.495605	-167.185852	864.101074
5563.204529	524.748718	-163.971359	880.115112
5563.207909	522.001770	-160.523087	897.298035
5563.211207	519.137939	-157.191696	913.312134
5563.214512	515.163635	-153.977219	929.443054
5563.217887	510.429596	-150.353592	945.515503
5563.221189	505.520172	-146.087082	961.763245
5563.224591	499.734070	-142.346588	978.478699
5563.227885	494.707733	-137.729401	992.856201
5563.231213	488.863251	-133.988892	1007.935120
5563.234572	482.726440	-129.371719	1022.078857
5563.237904	476.531281	-124.403854	1038.677368
5563.241714	470.628265	-120.137344	1052.937988
5563.244640	463.731720	-115.403267	1066.555786
5563.248360	455.900055	-111.019875	1081.459351
5563.251685	448.652802	-105.000008	1094.901855
5563.255028	439.710693	-100.908829	1107.467529
5563.258308	431.353027	-95.298073	1120.267090
5563.261655	423.112213	-90.096436	1132.423706
5563.264962	413.527161	-84.777908	1144.521851
5563.268340	403.766785	-79.284042	1158.607300
5563.271641	394.532440	-73.030396	1169.010498
5563.275483	383.661591	-67.536530	1180.056641
5563.278908	372.790771	-60.932205	1189.583252
5563.282244	361.335449	-54.912331	1201.096924
5563.285572	350.055511	-47.898891	1210.565186
5563.288904	337.606659	-41.411457	1219.624146
5563.292239	325.917603	-34.514904	1228.449341
5563.295568	312.767365	-26.683228	1236.807129
5563.298908	299.967865	-19.786674	1245.223145
5563.302242	287.168304	-11.838107	1252.411987
5563.305570	273.199890	-3.772647	1258.840942
5563.308902	259.465210	4.059030	1264.977783
5563.312298	245.263000	13.118060	1270.880737
5563.315579	230.710114	21.300409	1275.205688
5563.319322	215.864990	30.125656	1279.296875
5563.322658	200.026306	39.360023	1283.329590
5563.325994	185.005829	48.009933	1285.433594
5563.329359	169.284058	57.068966	1286.894775
5563.332651	154.205139	65.718880	1289.057251
5563.335999	138.366455	74.953239	1290.050903
5563.339321	122.410866	84.421394	1289.992432
5563.342686	105.987724	93.012863	1288.998901
5563.346019	90.032143	101.838112	1287.187012
5563.349387	73.550552	110.663361	1284.440063
5563.353080	58.530098	119.313263	1281.400879
5563.356426	42.165398	127.963173	1279.063110
5563.359756	26.268263	136.320877	1274.738159
5563.363099	10.663353	144.444763	1270.296387
5563.366434	-4.298656	152.276443	1265.211548
5563.369833	-19.494450	160.634125	1258.139648
5563.373179	-33.462891	167.998245	1252.178223
5563.376480	-48.366455	175.303909	1244.755737
5563.380172	-62.627121	182.317352	1238.852661
5563.383519	-76.478676	189.272354	1230.728760
5563.386974	-90.154884	196.578033	1222.721802
5563.390299	-103.831093	203.474579	1213.662720
5563.393282	-117.215080	209.436005	1206.473999
5563.396915	-131.008179	215.572754	1197.648682
5563.400217	-143.515503	221.183533	1188.063721
5563.403534	-155.555237	227.028046	1178.303345
5563.406911	-168.237885	233.457031	1166.614258
5563.410246	-180.102264	238.600250	1157.672119
5563.413617	-191.382233	243.860306	1146.158325
5563.416960	-203.597321	249.529526	1134.936890
5563.420761	-214.351257	254.322037	1123.598389
5563.424060	-225.046753	259.348328	1110.097534
5563.427413	-235.625366	264.199310	1099.694336
5563.430724	-246.437775	269.225586	1087.187012
5563.434098	-256.081268	273.492126	1074.504395
5563.437426	-266.075409	277.466370	1059.425537
5563.440718	-275.017517	281.966675	1046.976685
5563.444062	-284.310364	286.992981	1033.884888
5563.447347	-293.661591	290.207458	1019.974854
5563.451140	-302.077728	293.831116	1006.181763
5563.454420	-311.019897	297.279358	992.856201
5563.457830	-318.734680	301.078308	978.011108
5563.461136	-326.449463	304.526581	963.633484
5563.464426	-333.053802	307.390411	950.074158
5563.467704	-340.067230	309.611328	933.943359
5563.471017	-346.437775	312.884277	920.442444
5563.474421	-352.866760	315.338989	905.538818
5563.478174	-358.009949	317.384583	891.219788
5563.481501	-363.503784	318.962585	877.777344
5563.484835	-368.880768	320.423737	863.633484
5563.488161	-374.082397	322.177094	850.074158
5563.491516	-378.348907	322.878418	836.982422
5563.494872	-382.381653	324.047333	824.241333
5563.498182	-386.355957	324.573334	810.272949
5563.501479	-390.330200	324.690247	796.479858
