time (s)	magX	magY	magZ
9139.505518	308.909973	-197.811234	714.071838
9139.509179	314.403870	-200.032150	697.999390
9139.512571	319.722382	-202.253067	681.576233
9139.515971	325.274658	-204.357117	665.445312
9139.519325	328.664520	-206.636459	648.729980
9139.522627	332.580353	-207.863815	631.605469
9139.525932	336.320831	-209.266510	614.539429
9139.529231	338.892456	-210.143188	598.291626
9139.532557	340.996490	-210.669189	581.751587
9139.535924	342.749847	-211.428986	565.503784
9139.539272	344.795441	-212.071884	549.080627
9139.542627	346.198120	-211.078323	533.767944
9139.546356	347.834595	-210.902985	517.169495
9139.549790	348.126801	-210.552322	502.149078
9139.553083	348.360596	-209.617187	487.771515
9139.556406	348.360596	-208.389847	473.919952
9139.559770	348.535950	-206.811798	456.853912
9139.563104	348.477509	-205.876663	442.827026
9139.566383	347.542358	-204.298645	429.793671
9139.569732	346.782593	-202.662186	417.052582
9139.573010	346.373444	-200.558151	404.019287
9139.576758	344.970764	-198.337234	392.563995
9139.580084	344.152527	-196.174744	380.056702
9139.583454	342.749847	-194.479828	368.659851
9139.586796	340.704254	-192.843369	357.847473
9139.590108	339.243103	-189.687317	347.327301
9139.593455	337.431335	-187.992401	336.047363
9139.596762	335.736420	-186.063705	326.345398
9139.600122	333.749268	-183.609009	315.825256
9139.603421	331.762115	-181.388077	306.707794
9139.606748	328.839844	-178.933365	297.239624
9139.610506	326.969604	-176.770905	288.589722
9139.613815	323.930450	-174.725311	279.121582
9139.617204	321.767975	-173.030396	271.582123
9139.620496	318.962585	-171.218582	263.282898
9139.623849	315.572754	-168.413208	255.392746
9139.627155	312.767365	-166.718292	246.918167
9139.630481	309.962006	-165.549377	239.203384
9139.633814	306.747498	-163.386917	232.131500
9139.637622	303.533020	-161.516647	224.475143
9139.641237	299.967865	-159.646408	217.520172
9139.644563	297.688477	-157.951492	210.565170
9139.647901	294.123322	-156.665695	202.908829
9139.651233	291.084167	-155.204559	196.772049
9139.654592	287.402100	-153.568085	190.226181
9139.657898	285.181183	-152.048508	183.271179
9139.661227	280.271759	-150.061371	177.777313
9139.664567	277.407959	-147.781998	172.225006
9139.667951	274.836334	-147.022217	165.620682
9139.671237	271.563416	-145.035080	160.886612
9139.674567	267.998230	-143.632370	155.451187
9139.677899	265.718903	-141.469910	150.015778
9139.681233	262.387482	-139.482758	145.106369
9139.684560	259.523682	-137.495621	140.489182
9139.687899	256.250732	-136.151367	136.339554
9139.691234	253.328461	-134.982468	132.715958
9139.694988	250.639984	-132.586197	127.514320
9139.698347	248.886597	-130.949738	123.656929
9139.701659	246.665680	-129.254822	119.507317
9139.704987	243.451202	-127.150803	116.059044
9139.708340	241.522491	-125.923447	112.844536
9139.711688	239.535339	-123.293396	109.863823
9139.715008	237.548218	-121.715378	107.116898
9139.718316	235.327301	-120.546463	104.311508
9139.721653	232.989471	-118.851547	101.623032
9139.724986	231.645233	-117.273521	98.116310
9139.728743	229.307404	-116.104614	95.778496
9139.732090	227.495605	-114.818817	93.557571
9139.735425	225.040924	-113.708359	91.511986
9139.738817	223.112213	-112.364113	89.349503
9139.742181	221.241974	-111.019875	87.303917
9139.745436	219.956177	-110.552307	85.375221
9139.748739	218.261261	-108.506721	82.569847
9139.752072	215.689667	-107.571602	81.108711
9139.755446	214.462311	-107.045586	79.121567
9139.758782	212.416718	-105.467567	76.725304
9139.762571	211.014038	-104.181763	74.913506
9139.765913	209.319122	-103.012856	72.926361
9139.769305	207.507294	-103.071304	71.815895
9139.772622	205.403259	-102.428413	70.062538
9139.775942	203.825256	-101.610168	68.659851
9139.779335	201.954987	-101.201057	67.374054
9139.782624	201.195190	-100.441261	65.679138
9139.785950	199.149628	-100.149033	63.575104
9139.789253	197.805389	-98.921677	62.289307
9139.792589	195.818237	-98.161896	60.945068
9139.796381	194.532440	-97.577438	59.425484
9139.799693	193.363525	-96.700760	58.373466
9139.803024	191.610168	-96.350082	56.561661
9139.806339	190.558136	-95.648743	55.743431
9139.809675	189.330811	-95.298073	54.399185
9139.813024	188.045013	-94.421394	52.762711
9139.816302	187.051422	-93.427826	51.418472
9139.819610	185.531860	-92.668030	50.717125
9139.823403	184.479828	-92.609581	49.080650
9139.826350	184.012268	-91.732903	48.554649
9139.830156	183.018707	-90.973114	47.619522
9139.833438	181.908234	-90.154884	47.093513
9139.836742	181.557556	-89.804207	46.275276
9139.840035	181.323792	-88.810638	45.340149
9139.843462	179.921112	-88.226181	45.398598
9139.846771	179.628876	-87.758621	44.580368
9139.850121	178.985962	-86.648155	43.645241
9139.853403	178.927521	-86.706604	43.703682
9139.856749	177.875519	-86.239044	43.236122
9139.860528	177.933960	-85.479248	43.411461
9139.863906	177.349518	-85.362358	42.651665
9139.867201	176.765045	-84.661018	42.827003
9139.870579	176.998840	-84.485687	42.476334
9139.873883	176.589722	-84.251900	42.184105
9139.877271	176.355927	-83.433670	42.067215
9139.880591	176.472809	-83.199883	42.008766
9139.883928	176.589722	-82.556984	40.489189
9139.887314	175.829926	-82.556984	41.658089
9139.890657	175.537689	-82.732323	41.015198
9139.893962	175.128571	-82.732323	40.489189
9139.897695	175.070129	-83.024544	40.664528
9139.901205	175.362366	-82.556984	40.430740
9139.904543	174.719452	-82.966103	40.372292
9139.907874	174.368774	-82.381653	40.021622
9139.911206	174.135010	-82.615433	40.138512
9139.914537	174.427246	-83.082993	39.495621
9139.917869	174.427246	-83.492111	39.144943
9139.921203	173.842773	-82.849213	38.677383
9139.924544	174.544128	-83.258331	38.326714
9139.927876	174.018127	-82.790764	39.086494
9139.931202	174.076569	-83.433670	39.261833
9139.934538	174.427246	-83.842781	39.670952
9139.937872	173.492096	-83.959671	39.670952
9139.941648	173.959686	-83.901230	39.495621
9139.944960	174.368774	-83.784340	39.729401
9139.948295	174.368774	-83.959671	40.138512
9139.951628	174.719452	-84.076561	39.963181
9139.954960	175.362366	-83.901230	40.489189
9139.958295	175.187012	-84.427238	40.021622
9139.961625	175.596130	-84.368790	40.138512
9139.964984	176.706604	-84.193451	40.839859
9139.968308	177.057281	-84.251900	41.950325
9139.971697	178.109283	-84.485687	43.294571
9139.975377	178.459961	-84.368790	42.768555
9139.978726	178.985962	-84.310341	43.586792
9139.982051	179.979523	-84.602577	44.229691
9139.985435	181.323792	-84.894798	45.164818
9139.988743	182.083557	-84.836357	45.223259
9139.992130	183.310913	-84.719467	46.801285
9139.995470	184.888947	-84.777908	46.450615
9139.998784	185.590302	-85.245468	48.554649
9140.002473	186.642303	-86.005264	49.197540
9140.005839	187.402100	-85.829926	49.372879
9140.009241	188.337219	-86.881943	51.067795
9140.012561	190.032135	-87.407951	51.827591
9140.015894	191.025696	-87.407951	53.054947
9140.019258	192.253052	-88.050842	53.580948
9140.022577	193.421967	-89.044418	54.808304
9140.025891	194.766235	-89.278198	56.678551
9140.029262	195.935120	-89.804207	57.263008
9140.032580	197.688477	-90.271767	58.548805
9140.035962	198.389832	-91.206894	60.594391
9140.039307	200.435425	-91.616020	61.178848
9140.042662	201.370544	-92.609581	62.113976
9140.046076	202.714783	-93.427826	63.808884
9140.049803	203.708374	-94.479836	64.568680
9140.053126	204.526581	-94.947395	65.620689
9140.056479	206.981293	-96.116302	66.848045
9140.059760	207.799530	-96.934540	68.192291
9140.063195	209.552887	-97.343658	70.413208
9140.066500	211.890717	-98.395676	71.406784
9140.069801	213.468719	-98.863243	73.510818
9140.073135	214.520752	-100.207481	75.088837
9140.076457	215.689667	-101.201057	77.134430
9140.080320	217.910583	-101.727066	78.361778
9140.083634	219.430145	-102.136177	80.699593
9140.086942	222.469330	-102.954407	82.978958
9140.090227	223.872009	-103.889534	85.375221
9140.093507	226.092926	-104.123314	87.128586
9140.096865	228.196960	-104.766220	89.583290
9140.100253	231.119232	-105.935127	93.090004
9140.103551	232.346588	-107.045586	95.427818
9140.107306	235.619507	-107.630035	99.051437
9140.110584	237.898895	-108.156044	100.804787
9140.113928	240.704285	-109.383400	103.668617
9140.117205	243.217407	-110.435425	108.928703
9140.120551	246.315033	-111.195206	110.974281
9140.123872	248.769745	-112.364113	114.831680
9140.127179	252.101105	-113.299240	118.747520
9140.130972	255.257141	-113.416130	122.254234
9140.134518	258.121002	-114.351257	125.994743
9140.137856	260.692566	-115.695496	129.443008
9140.141191	263.965515	-116.279961	134.469315
9140.144522	266.887787	-117.565750	139.086502
9140.147848	269.985382	-118.325546	142.826996
9140.151187	272.966095	-119.728226	147.035065
9140.154518	275.479248	-121.540039	152.178253
9140.157890	278.869080	-122.182938	157.438339
9140.161194	281.966675	-123.877838	161.997070
9140.164518	285.005859	-125.046753	167.081818
9140.167848	287.168304	-126.624786	173.452362
9140.171185	290.908813	-128.144363	178.127991
9140.174511	293.538849	-129.430161	184.264755
9140.178280	296.402679	-130.248383	189.641708
9140.181623	299.558716	-132.235535	195.369370
9140.184937	303.416138	-133.988892	201.739914
9140.188276	306.221497	-134.748688	207.759781
9140.191602	309.202209	-136.677383	213.955002
9140.194958	312.066040	-137.787842	220.734650
9140.198298	315.222076	-139.541199	227.046753
9140.201642	318.144348	-141.177673	234.761551
9140.204939	322.060181	-142.346588	241.891861
9140.208694	324.631775	-143.749268	249.139084
9140.212046	328.430725	-145.093506	257.613678
9140.215360	331.937439	-145.911743	266.205170
9140.218747	335.093506	-146.905319	274.504395
9140.222057	338.191132	-147.723557	284.381683
9140.225426	340.821136	-148.483353	293.265350
9140.228771	345.321442	-148.950912	303.259521
9140.232059	348.009949	-149.652252	313.604309
9140.235349	351.107544	-150.528931	323.130920
9140.239137	354.146698	-150.236694	333.884888
9140.242538	357.361176	-150.412048	345.223267
9140.245897	360.809448	-150.295151	356.561676
9140.249193	363.790161	-150.412048	368.659851
9140.252499	366.127991	-150.704269	381.576294
9140.255868	369.225586	-150.178268	393.323792
9140.259226	371.914062	-149.886032	406.357086
9140.262574	374.018127	-149.009354	418.981293
9140.265894	375.946808	-148.658676	431.605530
9140.269210	377.758606	-148.308014	446.216858
9140.272959	379.395081	-147.957336	459.367035
9140.276347	380.622437	-147.255997	474.504425
9140.279679	381.849792	-146.028641	488.881958
9140.283025	382.784912	-145.268860	502.207489
9140.286347	382.434235	-144.567505	517.578613
9140.289671	382.141998	-143.515488	532.657471
9140.292965	381.966675	-142.580368	547.210388
9140.296301	380.856232	-140.710114	562.055481
9140.299593	380.271759	-139.599655	576.900635
9140.302966	378.635315	-138.722961	592.447083
9140.306677	376.589691	-137.495621	607.935120
9140.310071	374.251892	-136.034485	623.598450
9140.313370	371.388062	-134.690231	638.268250
9140.316698	367.705994	-132.644653	654.106934
9140.320032	364.140839	-130.599060	668.426025
9140.323358	360.400330	-128.319702	684.907654
9140.326725	355.198700	-125.631210	700.103455
9140.330070	350.873749	-122.825836	713.662720
9140.333364	345.146088	-120.020462	728.624756
9140.337145	338.834015	-117.039734	743.586792
9140.340509	332.463470	-112.597893	756.970764
9140.343786	325.917603	-107.805382	772.692566
9140.347175	318.553467	-104.064880	787.303894
9140.350453	310.955566	-98.980125	800.395630
9140.353823	301.896545	-92.960258	813.195190
9140.357136	293.421967	-87.466393	826.053223
9140.360458	284.187592	-80.686737	838.969604
9140.364244	275.011688	-73.965515	849.548218
9140.367825	265.134430	-66.952080	861.997070
9140.371159	253.620697	-59.471069	871.582092
9140.374500	242.983612	-52.282288	881.926880
9140.377822	231.353027	-42.989479	891.921082
9140.381164	219.605499	-35.099358	900.512573
9140.384492	206.630615	-26.274109	907.292236
9140.387822	193.188202	-17.624195	914.714783
9140.391215	179.862640	-8.623612	920.208618
9140.394492	166.127991	0.902981	925.702515
9140.397825	151.984222	9.669784	929.618347
9140.401160	137.197540	19.605494	933.767944
9140.404524	122.235535	27.670952	936.865601
9140.407828	107.507309	36.554646	938.034485
9140.411157	92.428406	45.905903	938.735840
9140.414917	77.232605	54.497368	938.794312
9140.418263	61.919930	62.621273	939.554077
9140.421582	46.665691	70.862068	937.333191
9140.424914	31.119228	78.927528	934.527710
9140.428278	14.812974	86.583870	931.079468
9140.431607	-0.090591	93.831093	927.572754
9140.434956	-15.403275	101.312096	923.072510
9140.438263	-30.365284	108.383987	917.753967
9140.441580	-45.093513	114.988304	911.441833
9140.445335	-59.646408	121.183517	903.960876
9140.448703	-73.673294	127.729393	896.947327
9140.452020	-87.583282	134.041489	888.239075
9140.455359	-101.259499	140.295151	879.179993
9140.458757	-114.818825	146.315018	869.010498
9140.462082	-126.858574	151.984222	858.899475
9140.465344	-139.599640	157.770309	848.379272
9140.468668	-151.171814	163.497955	837.274719
9140.472008	-162.860901	169.108704	825.059570
9140.475355	-174.433075	174.310333	812.669128
9140.478726	-184.719482	179.921097	800.337158
9140.482103	-194.655182	184.947403	786.894775
9140.485828	-204.006439	190.090591	773.569275
9140.489110	-213.123901	194.941559	759.600769
9140.492481	-221.306244	199.850967	744.404968
9140.495853	-228.670380	204.117477	729.735229
9140.499236	-236.560486	208.851547	714.831665
9140.502542	-243.281708	211.656921	700.512573
9140.505928	-250.470490	216.098770	684.966125
9140.509204	-255.438354	219.839279	670.296326
9140.512549	-262.101105	222.995316	654.223816
9140.516326	-266.893646	225.917587	637.742249
9140.519627	-271.160156	227.904739	623.072449
9140.522920	-275.309753	230.943878	607.642883
9140.526188	-279.167175	231.937469	591.278198
9140.529542	-282.615417	233.983047	576.842163
9140.532837	-285.713043	234.918182	561.354187
9140.536241	-287.933960	235.268845	546.684387
9140.539557	-290.680908	235.736404	532.949707
9140.543294	-292.609619	236.613098	518.279968
9140.546617	-294.421387	235.619507	505.129730
9140.549968	-295.940979	235.151947	491.102875
9140.553295	-297.285217	234.625946	477.251343
9140.556604	-298.512573	233.866150	462.172394
9140.559951	-299.739929	232.288132	450.132690
9140.563221	-299.856812	230.417892	438.677399
9140.567047	-299.856812	229.132095	426.579193
9140.570371	-300.265930	227.203384	413.136749
9140.573676	-300.032135	225.566925	401.623047
9140.577012	-300.324371	223.696671	391.044403
9140.580359	-299.330811	220.949738	379.530670
9140.583648	-298.395691	219.780838	369.302765
9140.586995	-297.752808	216.624771	358.256592
9140.590282	-296.583862	214.520752	348.320892
9140.593648	-295.298096	212.533600	337.800720
9140.597386	-293.661591	210.838684	327.864990
9140.601143	-292.317383	207.857986	318.747528
9140.604476	-290.739349	205.987732	308.694916
9140.607805	-288.693756	203.240784	300.220337
9140.611136	-286.881958	202.130325	291.628876
9140.614471	-284.544128	199.909409	283.271179
9140.617807	-281.914093	197.863815	273.803070
9140.621141	-279.576294	195.642899	265.270050
9140.624466	-277.180023	193.012863	257.029236
9140.627805	-274.140869	191.668610	248.145523
9140.631136	-272.036835	189.506134	240.138504
9140.634492	-268.530121	187.226761	232.715942
9140.637831	-265.315613	185.414963	225.585632
9140.641141	-262.568665	183.252487	218.279953
9140.644471	-259.587952	182.142029	212.318512
9140.647804	-257.191711	179.453537	203.902390
9140.651136	-253.860321	177.583282	197.940964
9140.654471	-250.295135	175.479248	191.570419
9140.658222	-248.483368	173.725891	184.615417
9140.661553	-245.035095	171.972534	178.946228
9140.664895	-241.236115	170.102280	173.452362
9140.668227	-238.547638	166.946228	167.666275
9140.671570	-236.326721	165.075989	161.997070
9140.674917	-232.936890	163.088837	157.321442
9140.678282	-230.599091	161.744598	151.886017
9140.681578	-228.085937	159.056107	147.327286
9140.684897	-225.923431	156.309174	142.534775
9140.688652	-222.825836	153.737579	138.326706
9140.691979	-221.481598	152.334900	135.170654
9140.695312	-219.260681	150.113968	131.196365
9140.698672	-216.338409	148.360611	127.397423
9140.702036	-214.818817	145.964355	123.364693
9140.705403	-212.305664	144.210983	119.741096
9140.708726	-211.019867	141.990067	116.818825
9140.711970	-208.623627	140.061371	113.779663
9140.715320	-206.285797	138.191116	110.506721
9140.719085	-204.357086	135.853302	107.701347
9140.722510	-202.077728	134.625946	104.662186
9140.725818	-200.850403	132.638809	101.681480
9140.729154	-198.337219	131.060791	98.174759
9140.732450	-196.759216	129.774994	95.720047
9140.735771	-194.830505	128.080078	93.148453
9140.739179	-193.018707	126.852715	91.395088
9140.742499	-190.856232	124.748688	88.706612
9140.745814	-188.576874	123.696663	86.251900
9140.749149	-186.823486	122.761536	84.381645
9140.752897	-185.888367	120.715958	81.810051
9140.756222	-183.316772	119.371712	79.939804
9140.759515	-181.855621	118.611923	77.134430
9140.762806	-179.693146	118.144363	75.322617
9140.766121	-177.822906	116.566338	73.452370
9140.769509	-175.835785	115.631210	70.939224
9140.772812	-174.140869	114.403854	68.835182
9140.776169	-172.621277	113.819397	67.490944
9140.779935	-170.517242	112.299828	65.737587
9140.783217	-168.880768	112.007599	63.575104
9140.786592	-167.478088	111.130920	61.646408
9140.789931	-166.192291	109.845116	59.951492
9140.793289	-164.672699	109.143768	58.665695
9140.796577	-163.562256	108.500877	56.970779
9140.799887	-161.458221	107.273521	55.275864
9140.803252	-160.581543	106.630623	54.808304
9140.806604	-159.003510	106.046173	53.580948
9140.810361	-158.068390	105.578613	52.061371
9140.813686	-157.074799	104.117470	51.067795
9140.816986	-156.315033	103.649910	50.132668
9140.820281	-154.737000	102.948570	48.729980
9140.823614	-154.327881	101.487434	48.671539
9140.826932	-152.983643	101.078316	48.028633
9140.830280	-152.048492	100.084740	46.509056
9140.833621	-151.990082	99.383400	45.632378
9140.836968	-150.704254	98.331383	44.931038
9140.840665	-150.295166	97.980713	44.346581
9140.843991	-150.178253	97.630035	42.943893
9140.847273	-149.827576	96.811806	42.768555
9140.850680	-148.541779	96.461128	42.300995
9140.853982	-148.658691	95.467567	42.184105
9140.857279	-148.600220	94.649330	42.125656
9140.860622	-147.957336	94.473991	41.132088
9140.864376	-147.314453	93.772644	40.839859
9140.867779	-146.320862	93.714203	41.482758
9140.871121	-146.496216	92.779076	40.138512
9140.874444	-145.853302	92.720627	40.021622
9140.877774	-145.210419	92.311516	39.495621
9140.881109	-145.502625	91.902397	39.729401
9140.884444	-144.275269	91.025711	38.502045
9140.887776	-144.567505	90.850380	37.625366
9140.891125	-143.866150	91.201050	37.683807
9140.894449	-143.807709	91.142601	37.450027
9140.898205	-142.814148	91.201050	37.157799
9140.901567	-142.346588	90.791931	36.924019
9140.904867	-142.405029	90.791931	36.398010
9140.908202	-142.112793	90.441261	36.281120
9140.911529	-141.645233	90.499710	36.281120
9140.914864	-141.528351	90.967270	34.995323
9140.918198	-141.353027	90.733490	36.047340
9140.921557	-141.119232	91.201050	35.404442
9140.924884	-140.768555	90.791931	34.995323
9140.928221	-140.008759	91.025711	35.053772
9140.931984	-140.710114	90.850380	34.118645
9140.935288	-140.826996	90.850380	35.404442
9140.938659	-141.119232	91.376381	34.761543
9140.941974	-141.002319	90.441261	34.878433
9140.945315	-141.119232	90.908821	34.995323
9140.948731	-141.762115	90.967270	35.112213
9140.952044	-142.171234	90.967270	36.105789
9140.955373	-142.229675	91.259491	36.748688
9140.959047	-142.580353	91.025711	36.281120
9140.962446	-143.223267	91.142601	37.099358
