time (s)	magX	magY	magZ
8980.555619	374.719452	-160.172409	336.748688
8980.559053	371.563416	-159.061951	324.942719
8980.562378	368.582703	-157.542374	314.422577
8980.565671	365.017517	-156.548813	303.551727
8980.569025	361.277039	-155.146118	294.142029
8980.572360	358.237854	-153.801865	283.972534
8980.575680	354.438904	-152.223846	274.855072
8980.579025	350.230865	-151.113388	266.322021
8980.582320	347.016357	-149.301575	257.964355
8980.585661	343.275848	-147.898880	249.080673
8980.589417	339.476898	-147.080658	241.658096
8980.592834	335.444183	-145.385742	233.534195
8980.596125	331.762115	-144.333725	226.462296
8980.599433	328.372284	-143.281708	219.390411
8980.602760	323.988892	-141.995911	212.961411
8980.606060	320.423706	-140.534775	205.889542
8980.609429	317.033875	-140.008774	199.928116
8980.612723	312.475159	-138.839859	193.323776
8980.616042	308.909973	-137.320282	187.537689
8980.619783	305.227936	-136.092941	181.517822
8980.623075	301.545868	-135.508469	174.913498
8980.626388	297.337799	-134.339569	169.653412
8980.629707	294.006409	-133.404449	164.744003
8980.633146	289.681488	-132.293991	158.373459
8980.636471	286.291626	-130.832855	153.054932
8980.639767	282.258911	-130.306839	147.561081
8980.643095	278.752197	-129.722397	141.833420
8980.646454	275.245483	-128.904144	138.034470
8980.650252	271.212738	-127.092346	132.482178
8980.653805	268.465790	-126.274109	128.683228
8980.657131	265.543518	-125.105194	123.481590
8980.660465	262.270599	-123.059616	118.864418
8980.663802	258.705414	-122.182938	114.714783
8980.667176	255.490936	-120.604904	110.857399
8980.670464	251.691986	-118.851547	107.175331
8980.673799	249.295746	-117.741096	103.025719
8980.677136	246.256561	-116.689072	100.454124
8980.680469	243.392761	-114.877266	95.836937
8980.683795	240.587372	-114.000580	93.440681
8980.687137	238.132660	-112.364113	90.693748
8980.690461	235.853302	-111.428986	87.420807
8980.693793	233.573944	-110.493858	85.609001
8980.697148	231.236115	-108.331390	82.686737
8980.700898	228.372284	-107.513153	80.582703
8980.704219	226.560486	-106.052017	77.835770
8980.707555	223.872009	-105.642899	76.374634
8980.710912	221.943298	-104.240211	74.153709
8980.714271	219.956177	-102.837524	71.874344
8980.717577	217.969025	-102.311516	70.471657
8980.720900	216.390991	-101.142609	68.659851
8980.724214	215.572754	-100.441261	66.964935
8980.727559	212.884277	-100.149033	65.737587
8980.730892	210.838684	-98.863243	63.867332
8980.734649	209.202209	-98.629463	62.406197
8980.737994	207.916412	-97.752769	61.763298
8980.741414	205.520172	-97.869667	59.834602
8980.744716	204.351257	-96.817642	59.951492
8980.748047	203.007019	-96.817642	57.204559
8980.751316	201.195190	-96.057869	56.269432
8980.754648	199.500275	-95.005844	55.568092
8980.757965	198.214508	-94.596725	54.048508
8980.761330	196.870239	-94.362946	53.230278
8980.765155	195.000000	-94.479836	51.944481
8980.768119	193.538879	-94.187614	50.658676
8980.771817	192.428406	-93.369377	47.970192
8980.775107	190.791931	-92.843361	48.028633
8980.778471	189.097015	-92.784927	46.742836
8980.781827	188.337219	-91.966690	45.807716
8980.785172	186.116302	-92.142021	44.112801
8980.788488	185.122742	-91.616020	43.236122
8980.791808	184.421387	-90.680893	42.417885
8980.795101	182.901825	-90.213333	41.658089
8980.798932	181.966675	-89.804207	41.307419
8980.801846	180.330231	-88.869080	39.729401
8980.805581	179.628876	-88.810638	38.794273
8980.808882	179.219757	-88.985970	38.794273
8980.812187	178.459961	-87.992401	37.800697
8980.815509	177.466400	-88.050842	36.982468
8980.818847	176.005249	-87.349503	35.872002
8980.822181	175.537689	-86.765045	35.638222
8980.825569	175.128571	-86.239044	35.579781
8980.829303	174.602570	-86.180595	34.469315
8980.832685	175.128571	-86.180595	34.293983
8980.835975	174.018127	-86.122154	33.943306
8980.839313	173.784332	-85.420807	34.118645
8980.842692	173.375214	-85.187027	34.118645
8980.846037	172.966095	-85.537697	34.060196
8980.849325	173.316772	-85.011688	32.482178
8980.852672	173.375214	-85.070137	33.651085
8980.855999	173.258331	-84.953247	33.300407
8980.859326	173.199890	-84.894798	33.709526
8980.862653	173.316772	-85.420807	33.183517
8980.866399	172.615417	-85.537697	34.001755
8980.869747	172.732330	-85.187027	33.943306
8980.873033	173.141418	-85.596146	34.001755
8980.876393	172.907654	-85.479248	33.884865
8980.879683	173.024536	-86.005264	34.410873
8980.883060	173.258331	-86.005264	34.644653
8980.886383	173.725891	-86.005264	34.293983
8980.889772	173.199890	-86.355934	34.235535
8980.893121	173.784332	-86.122154	34.761543
8980.896452	173.199890	-86.998833	34.819984
8980.899787	173.550568	-87.232613	34.469315
8980.903178	172.907654	-87.291061	34.936882
8980.906939	172.206299	-87.933952	34.819984
8980.910445	173.550568	-88.401520	35.462891
8980.913770	172.790771	-88.869080	34.936882
8980.917113	173.024536	-89.395088	35.345993
8980.920444	173.141418	-89.745766	35.521332
8980.923773	173.784332	-89.687317	35.696671
8980.927141	173.375214	-89.804207	34.703094
8980.930453	174.368774	-90.037987	35.988892
8980.933775	174.661011	-90.388664	35.755112
8980.937103	175.128571	-90.330215	35.345993
8980.940449	175.245483	-90.680893	36.164230
8980.943774	176.063690	-91.031563	36.339569
8980.947105	176.531281	-91.440674	37.391586
8980.950861	177.115723	-91.382240	36.690239
8980.954197	178.752197	-91.732903	37.333138
8980.957550	179.044403	-91.674454	38.092934
8980.960867	179.804199	-91.966690	38.852715
8980.964194	180.973114	-92.668030	40.547630
8980.967579	181.557556	-93.194038	40.839859
8980.970883	183.135590	-93.194038	41.774986
8980.974211	184.246063	-94.187614	42.242546
8980.977532	185.940979	-95.064293	43.937462
8980.981297	186.700775	-95.824081	44.638809
8980.984614	188.045013	-96.759209	46.625946
8980.987971	189.506134	-96.876091	47.385742
8980.991315	191.376373	-97.928116	49.431328
8980.994730	192.019287	-99.272354	50.424896
8980.998022	194.064880	-99.389252	52.470490
8981.001301	194.883118	-100.558159	53.405617
8981.004614	196.578033	-101.201057	54.983635
8981.007943	198.156036	-102.077728	55.977211
8981.011303	200.727631	-103.480423	58.607246
8981.015121	201.954987	-104.298660	59.074806
8981.018046	203.123901	-105.175339	60.769730
8981.021813	204.585052	-106.519577	62.289307
8981.025117	206.046173	-107.922264	64.393341
8981.028521	207.741089	-109.149620	66.906494
8981.031812	209.669769	-110.026299	68.192291
8981.035177	211.189362	-111.838112	69.536537
8981.038531	213.527191	-112.773239	71.757454
8981.041864	215.163635	-114.059029	73.861488
8981.045233	216.741669	-115.403267	74.855057
8981.048590	218.202789	-116.513741	76.783752
8981.051917	219.313263	-117.916428	78.887787
8981.055307	221.417297	-119.085327	80.816483
8981.058601	223.462891	-120.488022	82.920517
8981.062355	225.040924	-121.656921	84.556984
8981.065643	227.729401	-123.059616	87.245476
8981.069014	229.482758	-124.345413	89.758621
8981.072345	231.762115	-125.338974	91.745766
8981.075670	234.099945	-126.683228	94.960258
8981.078985	236.437744	-128.436584	97.824081
8981.082307	239.243134	-129.371719	100.512573
8981.086104	241.113373	-131.183517	103.960846
8981.089026	244.386322	-131.943314	107.701347
8981.092793	246.841034	-133.579773	111.149620
8981.096130	249.295746	-135.040909	114.831680
8981.099461	252.451782	-137.203400	119.799538
8981.102829	255.432495	-138.021622	122.604912
8981.106183	258.530090	-140.300995	128.390991
8981.109496	262.095245	-141.703690	132.832840
8981.112780	266.011108	-143.632370	138.092926
8981.116085	268.290466	-145.502640	142.885452
8981.119399	271.680298	-147.314438	148.320862
8981.122847	274.427246	-149.301575	153.054932
8981.126157	277.758606	-150.762711	160.009933
8981.129887	281.323792	-153.158966	165.562241
8981.133203	284.070740	-155.730560	173.043243
8981.136497	287.343658	-157.191696	178.887787
8981.139859	291.084167	-159.412613	185.550552
8981.143175	294.766205	-161.692001	192.797775
8981.146503	297.805359	-164.263596	199.811218
8981.149822	300.727631	-166.309174	207.058426
8981.153568	304.234344	-168.705444	213.838104
8981.157090	307.507294	-171.393921	221.494431
8981.160416	310.312683	-174.023956	229.092331
8981.163757	313.760925	-176.011108	236.281113
8981.167085	316.741669	-178.232025	244.580368
8981.170413	319.547058	-180.803619	253.405594
8981.173776	322.878418	-183.024551	261.704865
8981.177084	326.092926	-185.654587	270.296326
8981.180410	329.015198	-188.050858	279.121582
8981.183754	331.586792	-190.680893	287.829926
8981.187087	334.976624	-192.784912	297.707184
8981.190412	336.671539	-195.064285	306.824677
8981.193779	339.769135	-197.577438	316.935730
8981.197084	342.340729	-199.506149	327.397430
8981.200831	344.678528	-201.902405	338.443604
8981.204174	347.951477	-203.714218	349.489777
8981.207511	350.406189	-205.876663	360.711273
8981.210843	352.217987	-207.746918	372.458801
8981.214169	354.848053	-209.909393	385.316803
8981.217516	356.952057	-211.312088	398.057892
8981.220835	359.465210	-213.182343	411.617187
8981.224188	361.744598	-214.818817	425.351837
8981.227529	363.381042	-215.520157	440.313843
8981.230865	364.666870	-217.390427	454.983643
8981.234630	366.127991	-218.091766	472.341919
8981.237920	367.296906	-218.559326	487.654572
8981.241261	367.355347	-220.020447	504.194611
8981.244610	368.465790	-220.254242	520.676208
8981.247967	367.647583	-221.598495	538.092896
8981.251346	367.472229	-221.540039	555.743408
8981.254711	367.413788	-221.890701	574.270569
8981.257923	365.485077	-222.124496	591.804199
8981.261274	363.556396	-221.890701	610.506714
8981.265036	361.686157	-222.182922	628.157227
8981.268471	358.588531	-221.890701	647.970154
8981.271765	355.490936	-221.423141	665.679138
8981.275109	351.516632	-220.897141	684.381653
8981.278452	346.315002	-220.020447	702.441223
8981.281782	341.464050	-218.851547	720.559326
8981.285115	336.087067	-217.741089	738.735840
8981.288527	330.067200	-216.922836	755.977173
8981.291863	323.053772	-215.461716	774.270569
8981.295176	315.046753	-213.883698	791.395081
8981.298528	306.922821	-211.955002	808.344238
8981.301837	299.208069	-210.084763	824.358215
8981.305166	289.973694	-207.571594	840.664551
8981.308952	280.797760	-204.824677	856.737000
8981.312263	270.511383	-201.902405	871.932739
8981.315562	260.984802	-198.454132	887.070129
8981.318866	249.997070	-194.947388	901.330811
8981.322181	239.301575	-191.440689	915.474548
8981.325526	227.612518	-186.414383	927.455872
8981.328875	215.455872	-182.089417	940.430725
8981.332631	202.948578	-176.478668	954.399170
8981.335945	189.213898	-170.692566	964.451782
8981.339290	176.355927	-164.263596	974.679687
8981.342583	162.445923	-157.600815	985.199890
8981.345934	147.659271	-150.353592	994.142029
8981.349233	132.288132	-143.047928	1001.915222
8981.352558	117.267677	-135.216248	1009.104004
8981.355852	101.954994	-126.917007	1014.597900
8981.359648	85.765640	-117.448868	1020.909912
8981.362988	68.874924	-108.798958	1025.760864
8981.366287	52.627117	-99.564583	1027.923462
8981.369681	35.093513	-89.628876	1029.092407
8981.372979	17.267677	-79.693161	1030.261230
8981.376339	0.435417	-69.757454	1030.085937
8981.379674	-17.741089	-59.529518	1028.332520
8981.383019	-35.566921	-48.834019	1026.462280
8981.386335	-53.275864	-38.956749	1021.903564
8981.389648	-70.809464	-28.495033	1017.753906
8981.393455	-87.933960	-17.273525	1010.798889
8981.397058	-105.350670	-7.922267	1002.967224
8981.400394	-122.124489	1.954998	995.077087
8981.403731	-138.606079	12.708942	984.673828
8981.407055	-154.970764	22.644653	974.329041
8981.410394	-169.874359	31.586792	962.990601
8981.413746	-185.011688	39.710693	951.944519
8981.417067	-199.155487	47.717709	938.268250
8981.420392	-212.831696	56.776737	924.475159
8981.423730	-225.397430	63.848621	911.909363
8981.427057	-238.547638	71.446526	897.531860
8981.430393	-250.002930	78.401520	882.803589
8981.433761	-260.756897	85.239624	868.776733
8981.437057	-271.744598	91.668617	853.347168
8981.440393	-281.855652	97.513145	837.683838
8981.443722	-290.973114	103.123909	822.838623
8981.447065	-299.915283	108.734657	806.941589
8981.450809	-307.630035	113.819397	791.511963
8981.454139	-314.585052	119.079483	776.082397
8981.457505	-322.124481	124.222672	759.483948
8981.460839	-327.676819	128.489197	743.528320
8981.464185	-333.579773	133.690826	727.280518
8981.467511	-339.307434	137.372879	711.441833
8981.470819	-343.807739	142.165405	694.960205
8981.474144	-347.606659	146.139679	677.894165
8981.477508	-351.288727	149.763306	661.354187
8981.481230	-354.094116	153.445358	644.229675
8981.484579	-357.425476	156.659851	627.806519
8981.487919	-359.295746	160.283463	611.266479
8981.491411	-361.575104	163.322617	593.732910
8981.494674	-362.276428	166.069550	577.485107
8981.497906	-363.386932	168.874924	560.828186
8981.501237	-364.205139	171.271179	543.060730
8981.504569	-364.029816	173.375214	527.455872
8981.507920	-364.322052	175.479248	510.214508
8981.511255	-363.094696	176.239044	495.252502
8981.514646	-362.568665	177.349503	479.180054
8981.518402	-361.808868	178.226181	462.990662
8981.521701	-360.113983	178.459961	446.976654
8981.525020	-357.893036	179.336639	432.131531
8981.528352	-356.256592	179.336639	417.987732
8981.531751	-354.152557	178.985962	404.545288
8981.535091	-351.931641	179.278198	389.875488
8981.538452	-348.950928	178.985962	376.549988
8981.541773	-346.496216	178.167740	364.685577
8981.545095	-343.515503	177.057281	351.652252
8981.548528	-340.359467	175.654587	339.846283
8981.552256	-337.963196	174.310333	327.748108
8981.555602	-334.339569	172.673874	316.994171
8981.558886	-330.949738	171.797195	306.473999
8981.562195	-327.559906	170.219177	296.421387
8981.565571	-323.527191	168.465805	285.901215
8981.568848	-321.130920	166.829346	277.485107
8981.572236	-317.565765	165.777328	268.835205
8981.575526	-314.585052	164.491531	259.600830
8981.579312	-311.604340	162.445938	252.119797
8981.582641	-308.156067	160.751022	243.879013
8981.585951	-304.357117	159.056107	236.222672
8981.589300	-300.616608	157.594971	228.624771
8981.592623	-297.109863	156.484512	222.020462
8981.595953	-293.603180	154.029800	215.123886
8981.599282	-290.680908	152.919342	209.337814
8981.602621	-286.239075	150.873764	201.739914
8981.605991	-282.907654	149.354172	195.720032
8981.609287	-279.342499	147.659271	189.115723
8981.613046	-275.952667	146.198135	183.329636
8981.616386	-271.335480	144.795441	178.186432
8981.619680	-268.354797	143.334305	171.231430
8981.623019	-265.023376	141.522507	165.679138
8981.626310	-260.347748	140.002914	160.068375
8981.629645	-256.607269	138.249573	154.516068
8981.632984	-252.691406	137.840439	148.788422
8981.636801	-249.535370	136.145523	143.879013
8981.640373	-245.561096	134.275269	138.969604
8981.643698	-241.762146	132.755707	133.651077
8981.647032	-238.313843	131.645248	128.741669
8981.650369	-234.865570	129.190536	123.656929
8981.653716	-231.358856	127.963173	118.630638
8981.657033	-227.209229	126.209824	114.364120
8981.660371	-224.462311	125.040916	110.097610
8981.663704	-221.364685	123.521332	105.597313
8981.667036	-217.857971	121.767975	101.973694
8981.670366	-214.935699	120.014610	98.700760
8981.673701	-212.480988	118.962585	94.609589
8981.677066	-209.149628	117.618347	91.804214
8981.680363	-206.753357	115.631210	88.765060
8981.683696	-204.415527	114.053177	86.310349
8981.687030	-201.902405	113.351837	82.686737
8981.690796	-198.571014	111.481583	80.290474
8981.694122	-196.642303	110.195793	78.127998
8981.697482	-194.187622	109.552895	76.199303
8981.700815	-192.726471	107.741081	73.452370
8981.704144	-190.622437	106.981300	71.991234
8981.707513	-189.044434	105.520164	69.244301
8981.710787	-186.180603	104.818817	67.607834
8981.714128	-184.485687	103.591469	66.614258
8981.717449	-182.966125	102.013443	64.744011
8981.720820	-181.037415	101.428986	63.691994
8981.724563	-178.991821	100.493866	61.354179
8981.727901	-176.829346	99.909409	60.009933
8981.731307	-175.777313	98.389832	58.139687
8981.734622	-174.316193	97.922272	57.379898
8981.737955	-172.445953	97.630035	55.684982
8981.741208	-171.101685	96.987144	53.873177
8981.744555	-169.231445	95.350670	53.054947
8981.747932	-168.120972	94.590881	51.886040
8981.751231	-166.250732	94.181763	50.308006
8981.755076	-164.731171	93.889534	49.781998
8981.758380	-162.744019	93.480423	47.794853
8981.761682	-160.932220	92.779076	46.801285
8981.765037	-159.471069	91.843956	45.632378
8981.768328	-158.652832	91.201050	43.353012
8981.771704	-156.607239	90.791931	42.359444
8981.775042	-155.496796	90.324371	41.365868
8981.778409	-154.269440	89.155464	41.015198
8981.781733	-152.691406	88.921677	39.203392
8981.785040	-151.288727	87.986557	38.735825
8981.788425	-149.184692	87.460548	37.450027
8981.792164	-148.132660	87.285210	35.872002
8981.795461	-146.963776	86.233192	34.703094
8981.798783	-146.087097	85.765633	34.001755
8981.802110	-145.385742	85.005844	32.891289
8981.805454	-144.158386	84.596725	31.313269
8981.808793	-143.281708	84.129166	31.371714
8981.812108	-141.879028	83.720047	30.670370
8981.815880	-141.586792	83.953827	29.618353
8981.819195	-140.359436	82.960258	29.384573
8981.822555	-139.482758	83.077148	28.917009
8981.825807	-138.606079	82.142021	28.683229
8981.829232	-138.138519	81.616013	27.981882
8981.832533	-137.787842	81.440674	27.981882
8981.835883	-137.729401	80.856224	27.105200
8981.839170	-137.028046	81.382233	27.105200
8981.842545	-136.151367	80.973114	26.871420
8981.845894	-137.144958	80.447105	26.754530
8981.849628	-136.560486	80.797775	26.988310
8981.852975	-136.326721	80.797775	26.345411
8981.856339	-136.209808	80.330215	26.696085
8981.859626	-136.560486	80.563995	26.929865
8981.863006	-136.560486	80.271774	27.046755
8981.866293	-136.502045	80.856224	26.520746
8981.869614	-136.502045	80.330215	27.280539
8981.872957	-136.268280	80.330215	26.871420
8981.876746	-136.268280	80.622444	26.812975
8981.880348	-136.151367	80.680885	27.689653
8981.883679	-135.742249	81.674461	27.806543
8981.887010	-135.683807	81.031555	27.222090
8981.890349	-136.034485	81.499123	26.929865
8981.893677	-135.800720	81.382233	27.163645
8981.897052	-135.800720	81.031555	26.462301
8981.900361	-135.566925	81.265335	26.929865
8981.903679	-135.216248	81.674461	26.637640
8981.907012	-135.274689	81.557571	26.696085
8981.910345	-135.566925	82.317352	25.702513
8981.913682	-135.333160	82.434242	26.462301
8981.917011	-135.157806	82.317352	26.579191
8981.920339	-134.748688	83.018707	26.579191
8981.923672	-134.982483	82.668030	26.696085
8981.927012	-135.216248	82.434242	26.579191
8981.930335	-134.865570	82.843369	26.345411
8981.934104	-135.274689	83.369377	26.754530
8981.937469	-135.917603	84.070724	26.929865
8981.940790	-136.735840	83.427818	27.514318
8981.944129	-136.502045	84.538284	27.981882
8981.947466	-137.086487	84.362946	27.631208
8981.950765	-137.554077	85.005844	28.507891
8981.954094	-138.021637	85.824081	29.209234
8981.957437	-139.073639	85.765633	30.027472
8981.960785	-139.482758	86.116302	29.618353
8981.964537	-140.476349	86.291641	30.144361
8981.967903	-141.411469	87.343658	30.319696
8981.971305	-142.638794	88.103447	31.605494
8981.974585	-143.749268	89.213913	31.956167
8981.977934	-144.041504	89.097023	33.125076
8981.981216	-145.677979	90.558151	35.053772
8981.984521	-146.437744	90.382820	35.638222
8981.987856	-147.255981	91.727066	36.748688
8981.991232	-149.126251	92.486847	37.800697
8981.995004	-150.002930	93.012863	38.385155
8981.997970	-151.522491	94.473991	40.372292
8982.001694	-153.100525	94.883110	41.248978
8982.005038	-154.737000	95.935127	42.651665
8982.008340	-155.672119	96.578026	43.411461
8982.011699	-156.724152	97.396255	45.047928
8982.015102	-158.945068	98.156052	46.041496
