time (s)	magX	magY	magZ
5636.572423	-287.583282	163.264175	134.586197
5636.576206	-289.745758	163.907059	137.859146
5636.579618	-292.668030	165.075989	140.839859
5636.582934	-295.531860	166.011108	144.346573
5636.586270	-297.168335	167.296906	147.853287
5636.589608	-300.090607	168.758041	151.067795
5636.592919	-303.129761	169.985397	154.983627
5636.596333	-306.227356	170.803619	158.431900
5636.599621	-309.149628	173.316772	163.691986
5636.602959	-311.721222	174.076553	166.789597
5636.606298	-313.825256	176.122162	171.640549
5636.609594	-317.156647	177.817062	175.381058
5636.612944	-319.728241	179.628876	180.348907
5636.616728	-323.527191	181.323776	184.147858
5636.620024	-325.572754	183.895386	188.765045
5636.623329	-327.910583	186.057861	193.732910
5636.626676	-331.884857	187.986557	198.992996
5636.630033	-334.339569	190.499695	203.434830
5636.633404	-336.794281	192.662186	209.045578
5636.636726	-340.534790	194.473999	214.130325
5636.640024	-343.047943	196.110458	220.033310
5636.643787	-345.853302	198.331375	225.001175
5636.647135	-348.834015	200.902985	229.793686
5636.650409	-351.873199	203.007004	234.936874
5636.653780	-355.730560	204.643478	241.541199
5636.657071	-358.360596	206.221512	247.853317
5636.660399	-361.984253	208.150192	253.814713
5636.663714	-364.438934	210.078903	259.016357
5636.667472	-367.945648	211.656921	266.088257
5636.670814	-372.971954	213.118073	272.692566
5636.674120	-375.777313	214.696091	279.355347
5636.677451	-379.342499	216.274109	286.777924
5636.680787	-383.959656	217.793701	293.557587
5636.684086	-387.174164	218.436584	302.149048
5636.687435	-392.258911	219.839279	310.039185
5636.690727	-396.174744	220.599075	317.870850
5636.694111	-399.973724	222.177094	327.163666
5636.697863	-404.006409	222.936890	335.696686
5636.701571	-408.272980	223.930450	344.872620
5636.704901	-412.188812	225.450027	355.509644
5636.708228	-415.227936	226.502045	364.744019
5636.711560	-419.611328	227.261841	374.971954
5636.714892	-423.877838	229.015198	386.719482
5636.718255	-427.150818	229.950317	397.005829
5636.721557	-431.592651	231.177673	409.104065
5636.724897	-435.508484	232.171234	420.676239
5636.728224	-438.898315	233.749268	432.832855
5636.731578	-442.346619	235.677979	445.515472
5636.734897	-445.677979	236.846863	458.548828
5636.738230	-447.665100	238.074219	472.517242
5636.741560	-450.412079	240.412033	486.135010
5636.744893	-453.568115	241.990051	499.168335
5636.748230	-455.672150	243.217407	513.136719
5636.751558	-457.659271	244.269440	526.929871
5636.755330	-458.711273	246.607239	540.664490
5636.758652	-460.523102	247.483932	555.334290
5636.762016	-461.341309	249.237289	569.711853
5636.765309	-462.977814	249.704849	586.251892
5636.768680	-463.796021	250.639984	599.986511
5636.772013	-464.322021	251.341309	615.474548
5636.775337	-465.257141	251.750443	631.430176
5636.778664	-465.374084	252.568665	646.918152
5636.781984	-465.081818	252.860901	662.172363
5636.785754	-465.900085	251.984222	677.952637
5636.789066	-464.380493	251.867340	694.843323
5636.792444	-464.438934	251.341309	710.565125
5636.795765	-462.860901	250.289307	727.923401
5636.799145	-461.867310	249.587952	743.236145
5636.802509	-461.165985	246.724136	761.003479
5636.805803	-460.347778	245.087662	778.712402
5636.809074	-456.957947	242.165390	797.122742
5636.812416	-455.730560	238.834015	814.188721
5636.815765	-453.860321	234.859726	834.294006
5636.819618	-450.762726	231.236115	851.652222
5636.822534	-447.957367	226.852722	870.880737
5636.826240	-443.632385	222.235535	888.122131
5636.829576	-439.599640	217.559906	907.350708
5636.832896	-434.690277	212.299820	927.806519
5636.836275	-430.073059	206.513733	947.502563
5636.839596	-423.644104	201.136765	965.971313
5636.842922	-417.624207	194.532440	985.258362
5636.846258	-411.487427	188.454117	1006.064880
5636.849590	-403.246613	182.492691	1023.949097
5636.852915	-395.473419	175.771484	1042.534790
5636.856694	-385.303925	169.751617	1061.412598
5636.860004	-376.186462	162.445938	1080.699585
5636.863366	-366.542969	155.490936	1100.103394
5636.866693	-354.970795	148.594391	1117.695435
5636.870016	-342.288147	141.639389	1133.417236
5636.873354	-329.547058	135.210403	1150.658691
5636.876640	-316.279968	127.495613	1167.490967
5636.880006	-303.538879	121.008186	1182.336060
5636.883330	-288.109314	113.644066	1197.648682
5636.887151	-274.199310	106.981300	1211.909302
5636.890420	-258.068390	99.792519	1226.053223
5636.893720	-242.521912	92.603737	1240.489136
5636.897085	-225.806549	84.596725	1254.282227
5636.900378	-210.143188	77.115723	1265.211548
5636.903736	-193.544708	69.225601	1276.316162
5636.907062	-175.952637	61.277027	1285.550537
5636.910448	-159.178833	52.919346	1295.486206
5636.913792	-141.353027	44.561661	1304.603760
5636.917529	-124.170082	36.145531	1312.961426
5636.920858	-106.285805	26.794273	1319.974854
5636.924184	-88.869087	17.793688	1326.988281
5636.927475	-71.218590	7.390415	1330.670288
5636.930814	-54.094101	-1.434834	1336.924072
5636.934114	-36.034485	-11.195209	1340.839844
5636.937474	-18.793102	-21.423141	1342.768555
5636.940782	-1.259499	-31.358856	1346.918213
5636.944142	15.923436	-41.645237	1348.145508
5636.947871	34.216831	-52.516071	1348.963745
5636.951555	51.867325	-62.802452	1349.548218
5636.954894	68.991814	-72.387497	1347.327271
5636.958208	85.765640	-83.141441	1346.509033
5636.961541	103.591469	-92.843361	1342.943970
5636.964878	120.131500	-103.129753	1338.969604
5636.968202	137.548218	-113.123901	1333.592651
5636.971534	154.848038	-122.708939	1327.105225
5636.974877	171.037384	-132.060211	1320.909912
5636.978205	187.694336	-140.476334	1314.071899
5636.981539	204.059021	-148.950912	1304.545288
5636.984866	220.599060	-156.198135	1294.317261
5636.988198	236.846863	-163.737579	1284.556885
5636.991534	252.276428	-171.160141	1272.166626
5636.994873	267.121582	-177.589127	1260.477539
5636.998217	282.258911	-183.725891	1248.379272
5637.001974	296.578003	-189.102859	1234.410767
5637.005308	311.949158	-193.895370	1219.857910
5637.008646	325.391571	-198.337234	1206.649292
5637.012014	339.593811	-202.779083	1190.869141
5637.015288	351.224426	-206.461136	1176.316162
5637.018627	365.134430	-210.143188	1161.588013
5637.021961	377.057251	-212.773239	1144.405029
5637.025290	388.278778	-216.689072	1126.988281
5637.028646	398.331360	-219.611343	1109.746948
5637.032402	408.793091	-221.189362	1092.680908
5637.035738	418.904114	-223.468750	1075.731689
5637.039137	427.320282	-225.864990	1057.964233
5637.042514	435.677979	-227.793686	1040.489136
5637.045704	443.743439	-229.371719	1023.189331
5637.049042	451.516632	-231.592636	1004.954407
5637.052387	458.004059	-233.170654	986.777832
5637.055743	464.023926	-234.514908	970.763855
5637.059066	469.342499	-236.735825	953.580933
5637.062515	474.953247	-239.073639	935.404480
5637.066226	479.395081	-240.242538	918.513733
5637.069516	482.375793	-242.288147	901.564575
5637.072888	486.525421	-243.983032	883.738770
5637.076245	489.447693	-245.327286	867.081787
5637.079563	492.486816	-247.197540	849.723511
5637.082888	495.350647	-248.892456	833.826416
5637.086258	496.870239	-250.412048	816.877258
5637.089608	499.617157	-250.938049	800.161865
5637.092892	500.493866	-251.990051	784.089355
5637.096267	501.545868	-252.866760	767.490906
5637.100014	502.305664	-253.801880	751.885986
5637.103306	503.006989	-254.327881	736.047302
5637.106634	502.188782	-255.321442	719.156616
5637.109929	502.071869	-255.438324	703.843933
5637.113389	502.539459	-255.029236	689.232605
5637.116684	503.123932	-254.035645	673.627686
5637.120009	501.838074	-255.438324	658.782532
5637.123340	501.779663	-253.977203	644.229675
5637.126695	501.487427	-252.925201	629.501465
5637.130486	500.669220	-251.639404	615.591431
5637.133787	499.558746	-250.061371	602.441223
5637.137097	498.623627	-249.009369	588.122131
5637.140433	497.746918	-247.256012	574.621277
5637.143768	496.461121	-245.794861	562.406189
5637.147188	494.649323	-243.632370	550.775513
5637.150460	493.480408	-241.469894	537.566895
5637.153765	492.486816	-240.008774	525.585632
5637.157136	490.149048	-237.787857	513.954956
5637.160863	488.570984	-235.508469	503.493317
5637.164271	486.583862	-233.638229	491.979553
5637.167613	485.005829	-231.241974	480.641174
5637.170922	482.960236	-230.365280	470.530121
5637.174284	480.739319	-228.144363	458.841034
5637.177615	478.109283	-226.390991	449.723572
5637.180923	476.180573	-224.696075	440.372314
5637.184311	474.251892	-223.585617	430.144348
5637.187596	471.446533	-221.540039	421.377563
5637.190956	468.465820	-220.312683	413.545898
5637.194247	466.127991	-219.143784	404.720642
5637.198095	463.381073	-217.857986	396.187622
5637.201516	459.874298	-216.747513	388.472839
5637.204864	458.354767	-215.812378	380.582703
5637.208182	455.607819	-214.877258	372.634155
5637.211510	452.568634	-213.299240	365.971375
5637.214851	449.704865	-212.247208	358.899506
5637.218176	446.315002	-211.721222	351.360016
5637.221511	443.042053	-210.084763	345.164825
5637.224842	441.405609	-209.558731	338.443604
5637.228181	437.489777	-209.032730	331.021027
5637.231507	434.625916	-208.448273	325.936310
5637.234858	432.404999	-206.402695	319.039734
5637.238185	429.190521	-205.642899	312.318542
5637.241935	426.443604	-205.116898	307.642914
5637.245267	423.696655	-204.240219	301.564606
5637.248610	421.592621	-202.603729	296.479828
5637.251933	418.670349	-201.727066	290.459991
5637.255264	416.741669	-200.324371	285.316803
5637.258599	413.234955	-198.687897	280.699615
5637.261923	412.066040	-197.577438	275.147278
5637.265288	409.552887	-196.350082	271.056122
5637.268621	407.039734	-194.947388	265.153137
5637.271992	404.818817	-193.310944	261.763306
5637.275713	403.182343	-191.382233	256.561676
5637.279024	401.779633	-189.862656	252.587357
5637.282357	398.857391	-188.810638	247.970169
5637.285709	397.805359	-187.291061	244.697250
5637.289047	395.584442	-185.946823	240.664505
5637.292486	393.480408	-184.485687	237.274689
5637.295790	392.253052	-183.492111	234.644653
5637.299105	390.032135	-181.797195	230.670364
5637.302778	388.161896	-180.452957	228.332550
5637.306136	386.817627	-179.167145	225.176498
5637.309561	385.414948	-177.881363	222.137329
5637.312877	383.486267	-176.537125	219.215088
5637.316284	382.492676	-175.368210	217.111038
5637.319593	380.213318	-174.842194	214.130325
5637.322939	379.161316	-173.731735	212.844543
5637.326241	377.758606	-173.264175	210.039169
5637.329587	376.122131	-172.445938	207.584457
5637.332917	374.544098	-171.393921	205.655746
5637.336255	372.849182	-171.218582	203.259491
5637.340005	372.206299	-170.867920	201.681473
5637.343333	370.452942	-170.458786	199.402100
5637.346707	369.342499	-170.049683	198.642303
5637.350037	367.647583	-169.932785	196.596725
5637.353330	366.420227	-169.640564	194.726471
5637.356676	365.660431	-168.939224	192.622452
5637.360014	363.731720	-169.114548	191.570419
5637.363315	362.738159	-168.705444	189.700180
5637.366658	362.036804	-167.711868	188.648148
5637.370370	360.517242	-168.120972	187.303909
5637.373665	360.867889	-167.653412	186.368790
5637.376974	358.880768	-167.887192	184.556976
5637.380390	357.478088	-167.185852	183.680298
5637.383688	357.302734	-165.900055	183.154282
5637.387018	356.718292	-166.835190	181.517822
5637.390344	356.016937	-166.192291	181.225601
5637.393642	356.075409	-165.724731	180.465805
5637.397023	354.789581	-165.140274	180.173584
5637.400820	354.848053	-165.666275	179.355347
5637.404156	354.322021	-164.438919	178.361771
5637.407415	354.497345	-163.503799	177.601974
5637.410724	353.562225	-163.503799	177.426651
5637.414024	353.971344	-162.685562	176.608414
5637.417367	354.672699	-162.510223	175.848618
5637.420719	354.088257	-161.692001	176.433075
5637.424440	354.322021	-161.458221	176.199295
5637.428161	354.088257	-161.224442	175.673279
5637.431490	354.964905	-160.230865	174.971939
5637.434825	355.432465	-159.704849	176.374634
5637.438157	355.724701	-159.354187	176.433075
5637.441489	355.432465	-159.587967	175.965515
5637.444825	356.835175	-158.945053	177.426651
5637.448160	356.309174	-159.646408	177.894211
5637.451498	356.718292	-158.828171	177.952652
5637.454826	357.536530	-159.529510	177.835770
5637.458154	358.179413	-159.354187	178.946228
5637.461486	359.465210	-159.412613	179.706009
5637.464822	359.114532	-159.471069	180.641144
5637.468148	359.699005	-159.880188	181.634720
5637.471484	360.517242	-159.997086	182.511383
5637.474819	361.569244	-160.756866	183.212738
5637.478211	361.569244	-160.756866	184.440094
5637.481933	362.562805	-161.516647	185.667450
5637.485252	363.264160	-162.276443	187.771469
5637.488614	364.549957	-162.860901	189.115723
5637.491906	364.549957	-163.445358	190.401505
5637.495248	366.011078	-163.620697	190.927536
5637.498571	366.011078	-164.438919	193.265350
5637.501905	367.238434	-164.906494	194.375809
5637.505267	368.816467	-165.841614	196.012253
5637.508604	369.517822	-166.893631	197.707184
5637.512441	370.336060	-167.244293	199.577423
5637.515672	371.504974	-167.594986	200.804779
5637.519000	373.433655	-167.945648	203.434830
5637.522321	374.894806	-168.822327	205.480408
5637.525689	376.122131	-168.588547	207.935120
5637.529024	377.349487	-170.166580	210.097595
5637.532457	379.395081	-169.231445	212.318512
5637.535740	381.206879	-170.341904	214.714798
5637.539038	382.141998	-170.926361	217.520172
5637.542778	384.304504	-170.517242	219.799515
5637.546113	386.876099	-171.452362	222.838684
5637.549500	388.687897	-171.218582	225.410278
5637.552829	390.265900	-171.803040	228.332550
5637.556163	393.597321	-171.861481	231.780823
5637.559459	395.876648	-172.270599	234.410858
5637.562778	398.039154	-172.445938	238.209824
5637.566114	399.558716	-172.387497	242.067200
5637.569510	401.954987	-172.329056	245.573929
5637.572850	404.468140	-173.147278	248.963760
5637.576207	406.455261	-172.971954	253.580948
5637.579979	408.676208	-173.614838	256.620117
5637.583389	411.247803	-174.082413	260.419037
5637.586686	413.468719	-174.549973	264.802460
5637.589990	416.390991	-175.777328	269.828766
5637.593295	418.845703	-175.835770	274.212158
5637.596612	421.475739	-176.770905	278.420227
5637.599902	423.813538	-177.413788	283.446533
5637.603263	426.502014	-178.407364	289.349518
5637.607035	428.898315	-179.634705	293.674469
5637.610347	431.119232	-181.037415	299.635895
5637.613683	434.625916	-181.446533	305.597321
5637.617091	436.613098	-183.024551	309.571625
5637.620415	438.892487	-183.959671	316.701935
5637.623740	441.931610	-185.946823	321.728241
5637.627048	443.626526	-186.940384	328.449463
5637.630345	447.133270	-188.284637	333.767975
5637.633654	449.704865	-189.453537	340.606079
5637.637441	452.276428	-190.680893	346.625977
5637.640814	455.198669	-191.382233	354.048523
5637.644109	458.062531	-192.668045	361.237305
5637.647460	460.458771	-194.479828	368.192291
5637.650776	463.322601	-194.655167	376.082428
5637.654135	465.718872	-196.116318	382.745178
5637.657439	468.816498	-196.350082	390.693756
5637.660760	471.680267	-197.343674	398.993011
5637.664505	474.719452	-198.103439	406.590881
5637.668168	477.115692	-198.512558	415.357666
5637.671462	480.856201	-199.213913	423.773804
5637.674800	483.369354	-199.973709	431.956177
5637.678130	486.350067	-199.915253	440.898315
5637.681473	488.570984	-199.856812	450.132690
5637.684794	492.545288	-200.032150	459.133270
5637.688134	495.409119	-200.441269	470.296326
5637.691464	498.915833	-200.149048	479.881378
5637.694791	501.253662	-199.856812	490.693756
5637.698131	503.006989	-200.324371	500.337250
5637.701464	507.799561	-199.213913	510.974274
5637.704795	510.955597	-198.746353	521.903503
5637.708160	514.754517	-199.038559	532.715942
5637.711489	515.455872	-198.921692	544.521912
5637.714795	518.670349	-198.746353	555.568115
5637.718553	520.073059	-197.928101	566.964905
5637.721891	522.527771	-197.869675	579.589111
5637.725230	524.573364	-197.869675	590.869080
5637.728552	526.268250	-197.460541	604.428406
5637.731886	528.080078	-197.518997	616.760376
5637.735219	529.190552	-197.986572	628.975464
5637.738565	529.599670	-197.460541	642.710083
5637.741913	531.353027	-198.161896	657.029236
5637.745247	531.703674	-198.161896	670.413147
5637.748611	532.171204	-197.928101	682.978943
5637.752311	532.697266	-197.928101	697.356506
5637.755666	532.872620	-197.811234	711.792480
5637.758979	532.580383	-197.402100	726.053162
5637.762334	532.814148	-197.168304	740.138489
5637.765663	531.937500	-196.057861	755.158936
5637.769060	532.112793	-195.940979	770.530090
5637.772417	529.891907	-195.590286	785.258301
5637.775644	529.658081	-194.538300	800.746338
5637.779429	527.729370	-193.486267	815.708313
5637.782762	525.333130	-192.200485	831.313293
5637.786184	523.579773	-191.148453	846.976624
5637.789507	521.592651	-188.109283	862.464600
5637.792868	517.968994	-186.648163	878.186401
5637.796187	515.689636	-185.187027	894.025085
5637.799510	513.293396	-182.030975	910.506714
5637.802864	509.377533	-179.517822	924.942749
5637.806204	505.344849	-175.017532	941.073669
5637.809534	500.669220	-171.335480	957.146118
5637.812836	496.811798	-167.478088	972.867920
5637.816619	492.077759	-164.029816	988.472778
5637.819989	487.226746	-159.295731	1002.908752
5637.823288	481.674438	-154.620102	1018.747437
5637.826618	475.829895	-149.476913	1033.826416
5637.829903	469.751617	-145.035080	1048.729980
5637.833300	463.731720	-139.365875	1062.230835
5637.836594	456.016937	-134.398010	1076.140869
5637.839962	448.945068	-128.027466	1088.998901
5637.843240	440.412018	-122.884277	1103.727051
5637.846985	432.404999	-117.039734	1117.870728
5637.850337	423.988892	-111.487434	1129.910522
5637.853635	413.819397	-106.110466	1142.885498
5637.857077	405.344818	-99.856812	1156.386353
5637.860398	395.058441	-94.596725	1168.016968
5637.863711	384.304504	-88.518410	1179.472168
5637.867129	373.725891	-83.141441	1190.927490
5637.870419	362.621277	-77.355347	1202.382812
5637.873788	351.049072	-71.043251	1213.078247
5637.877117	338.834015	-65.958504	1224.124512
5637.880437	326.443604	-60.230858	1234.586182
5637.884250	313.644073	-54.503220	1244.697266
5637.887620	300.143188	-48.191116	1251.710693
5637.890910	286.233185	-42.288136	1261.412598
5637.894251	272.907654	-36.677383	1269.302734
5637.897574	258.471649	-30.774399	1276.842163
5637.900897	244.795441	-23.877850	1283.271118
5637.904256	229.833435	-17.565750	1288.881958
5637.907562	214.929871	-11.136762	1294.667969
5637.910972	199.091156	-4.064874	1299.226685
5637.914320	184.538269	2.714787	1303.376343
5637.917644	168.758026	11.832262	1307.642944
5637.921002	153.562256	19.839275	1310.682007
5637.924346	137.372864	27.028053	1312.727661
5637.928105	122.352425	35.210403	1313.019775
5637.931435	106.513733	43.801872	1312.552368
5637.934777	91.259491	52.627117	1312.844482
5637.938110	75.420807	61.160137	1310.506714
5637.941440	59.932785	69.985390	1308.344238
5637.944776	44.970779	78.810638	1305.831055
5637.948109	29.248976	87.402100	1302.499756
5637.951442	13.351840	97.279366	1297.005859
5637.954778	-1.317944	106.455284	1292.856201
5637.958546	-15.461720	115.046753	1286.836304
5637.961870	-30.774403	124.047340	1281.108765
5637.965200	-45.853310	133.281708	1274.738159
5637.968524	-59.237289	142.457626	1267.783081
5637.971898	-73.907082	151.165985	1259.600830
5637.975197	-88.226189	159.056107	1251.301514
5637.978522	-102.019279	167.063126	1241.833374
5637.981853	-116.046165	175.070129	1232.657471
5637.985227	-129.254822	182.492691	1224.475098
5637.989060	-142.405029	189.973709	1214.071899
5637.992365	-155.964355	196.227356	1205.129639
5637.995643	-169.114563	202.831680	1195.193970
5637.998949	-181.621857	208.617767	1185.492065
5638.002284	-194.421387	214.345428	1174.738159
