time (s)	magX	magY	magZ
7965.311345	-252.632965	161.978378	126.871422
7965.314738	-255.905914	164.549973	131.430145
7965.318077	-259.003510	166.829346	136.748688
7965.321793	-263.562256	168.991821	141.482742
7965.325348	-267.478088	171.504959	147.210403
7965.328705	-271.043274	174.135010	153.288712
7965.332022	-275.368225	176.765045	159.250137
7965.335349	-279.400940	178.693756	164.919342
7965.338674	-282.732330	180.856216	171.932785
7965.342045	-286.765045	183.953827	178.654007
7965.345344	-291.323792	186.233200	186.368790
7965.348677	-295.005859	189.155457	193.674454
7965.352010	-299.739929	191.551727	200.980118
7965.355356	-303.947968	194.649323	208.987137
7965.358674	-307.337830	197.337814	216.760376
7965.362004	-312.364136	199.266510	224.884277
7965.365339	-316.513733	202.247223	233.358856
7965.369098	-321.306274	205.461716	242.067200
7965.372433	-325.514313	208.091766	250.950912
7965.375789	-330.014618	210.371124	259.893066
7965.379156	-333.988922	213.527176	269.595001
7965.382456	-337.554077	217.326126	280.290466
7965.385783	-342.229706	219.488617	289.875519
7965.389103	-346.262451	222.235535	300.395691
7965.392424	-349.476929	225.450027	311.558746
7965.395762	-353.509644	228.430740	322.488037
7965.399548	-357.074829	231.469910	333.417328
7965.402894	-360.815308	234.509048	345.106384
7965.406263	-363.737579	237.314423	357.613678
7965.409600	-366.601410	240.645828	370.647003
7965.412991	-369.582123	243.275879	382.043854
7965.416190	-372.329071	246.198120	395.661621
7965.419511	-375.134460	249.471054	409.571594
7965.422889	-377.413788	251.808868	423.773804
7965.426204	-380.043823	254.672714	437.976074
7965.429555	-382.147858	256.659851	453.113403
7965.433361	-383.024536	259.523682	469.127411
7965.436687	-385.011719	261.686157	485.725922
7965.440072	-386.881958	263.731750	501.330780
7965.443367	-387.349487	265.543549	518.981262
7965.446753	-388.343079	267.647552	536.281128
7965.450054	-388.927551	268.874908	554.106934
7965.453369	-389.102875	269.108704	571.874329
7965.456745	-389.336670	269.751617	590.752197
7965.460047	-388.226196	270.043854	609.571533
7965.463364	-387.466431	270.219177	628.916992
7965.466738	-385.596161	269.576263	649.139099
7965.470465	-383.901245	269.050262	668.952026
7965.473783	-382.147858	266.770905	689.875488
7965.477111	-378.699615	265.777313	709.922241
7965.480533	-375.894257	264.023956	730.085937
7965.483839	-371.627716	261.393921	751.126221
7965.487144	-366.133850	257.945648	772.225037
7965.490485	-361.808868	254.906479	793.148376
7965.493821	-356.081268	250.990646	814.831665
7965.497157	-348.775574	247.600815	836.164246
7965.500969	-341.762146	242.925186	856.327881
7965.504271	-333.872009	238.132675	877.134399
7965.507612	-324.812988	232.814133	897.765625
7965.510983	-315.111053	227.261841	916.994141
7965.514283	-305.642914	221.475739	936.631714
7965.517686	-294.830536	215.163651	956.970764
7965.521001	-283.492126	209.202225	975.848633
7965.524337	-270.984802	202.714798	992.973083
7965.527654	-257.542389	195.233780	1012.493896
7965.530999	-243.632385	189.213913	1028.566284
7965.534366	-229.663940	181.732910	1044.405029
7965.537744	-214.234375	174.485687	1060.594360
7965.541456	-199.681488	166.537109	1075.556274
7965.544792	-183.258331	158.179428	1090.226196
7965.548077	-166.016937	150.172409	1102.382812
7965.551440	-148.658691	141.873169	1114.247192
7965.554744	-130.715942	133.632385	1126.929810
7965.558040	-112.422569	123.346001	1136.573364
7965.561807	-93.544708	114.286964	1147.035034
7965.565323	-73.439514	105.111046	1156.210937
7965.568650	-54.035652	95.292221	1163.341309
7965.572005	-34.339565	84.129166	1170.413208
7965.575318	-14.000587	74.135010	1175.088867
7965.578652	6.513733	62.855057	1179.180054
7965.581989	27.554060	51.575104	1181.926880
7965.585321	48.652832	40.295147	1183.095825
7965.588648	68.758034	28.781414	1184.790771
7965.591980	89.506134	16.975452	1183.855591
7965.595318	109.786667	4.760374	1181.459351
7965.598655	130.476334	-6.168908	1179.472168
7965.601996	150.289307	-18.091759	1173.861450
7965.605758	169.693146	-29.663940	1169.361206
7965.609096	188.921692	-40.476334	1162.756836
7965.612413	207.448853	-52.691410	1154.632935
7965.615748	225.917603	-62.627113	1144.288086
7965.619071	243.275848	-73.147285	1133.592651
7965.622410	259.523682	-83.199883	1120.617676
7965.625740	275.771484	-93.018707	1108.168823
7965.629068	290.733459	-102.428413	1095.018677
7965.632414	306.396820	-111.779663	1079.705933
7965.636184	320.073059	-119.669785	1064.744019
7965.639619	334.392151	-127.209229	1048.788452
7965.642911	346.665680	-134.924011	1032.598999
7965.646178	358.588531	-141.353012	1014.656372
7965.649502	370.628265	-147.548218	995.895325
7965.652829	381.499115	-153.509644	978.011108
7965.656182	391.551727	-159.061951	959.542358
7965.659520	400.201630	-163.912918	939.378723
7965.662912	409.611328	-168.062546	920.150146
7965.666234	417.326111	-171.861481	900.454102
7965.669938	425.391571	-175.075989	881.050293
7965.673280	431.294556	-178.816483	860.477478
7965.676629	437.372894	-181.271194	840.956726
7965.680031	442.574524	-183.842789	819.682678
7965.683380	448.419067	-186.648163	800.804749
7965.686668	452.217987	-187.992401	779.647522
7965.689949	456.367615	-189.745758	760.243713
7965.693279	459.640564	-191.031555	739.729370
7965.696670	462.270599	-193.018707	720.851501
7965.700005	464.199280	-194.187607	700.278748
7965.703770	466.127991	-194.362930	682.336060
7965.707057	466.829315	-196.057861	661.646362
7965.710370	467.355347	-196.817642	640.956726
7965.713842	467.998230	-197.285202	622.312622
7965.717181	467.647583	-197.928101	604.545288
7965.720478	466.712433	-198.337234	585.842773
7965.723838	465.017517	-199.155457	568.484497
7965.727159	463.965515	-198.863235	549.898865
7965.730468	461.393890	-199.506149	532.774353
7965.733826	458.997650	-199.155457	515.883667
7965.737550	457.244324	-199.330795	498.233215
7965.740926	454.205139	-199.798355	483.037415
7965.744235	450.990631	-198.570999	466.672699
7965.747599	447.834595	-198.044998	449.723572
7965.750885	443.684967	-197.518997	434.410889
7965.754178	440.178253	-196.817642	420.091766
7965.757532	436.145508	-196.057861	406.064880
7965.760862	432.521942	-195.181183	392.622467
7965.764716	427.729370	-194.246063	379.413818
7965.768009	424.164215	-193.836945	367.198730
7965.771312	419.956146	-192.258911	354.749847
7965.774641	415.280518	-190.739334	342.651672
7965.777963	411.540009	-189.161316	331.254822
7965.781312	407.565765	-187.700180	320.968445
7965.784669	403.182343	-186.180603	310.798950
7965.787951	399.149597	-184.018127	300.687897
7965.791328	394.766205	-182.615433	290.635315
7965.795069	390.207458	-180.745178	281.517822
7965.798637	385.940979	-179.225601	273.627716
7965.801963	381.849792	-177.589127	264.568665
7965.805294	377.933960	-175.894211	256.503204
7965.808627	374.018127	-173.614838	247.619522
7965.811968	369.225586	-171.978378	239.963181
7965.815293	365.601990	-170.166580	232.365280
7965.818626	361.744598	-167.653412	225.118073
7965.821957	358.062531	-165.666275	218.396835
7965.825295	353.562225	-164.088257	211.500290
7965.828627	349.412628	-161.575104	204.779083
7965.831961	345.905884	-159.295731	198.817642
7965.835294	342.399170	-157.425491	190.810638
7965.838652	338.132660	-155.555237	185.258316
7965.841970	333.924591	-154.152542	180.056686
7965.845717	330.008759	-152.516083	173.686142
7965.849049	325.742249	-150.821152	168.016953
7965.852389	322.060181	-149.535355	162.230850
7965.855716	317.676788	-147.840454	156.912323
7965.859048	313.410278	-146.262421	151.360031
7965.862398	309.202209	-144.684402	146.625946
7965.865711	306.279938	-143.573944	141.482742
7965.869075	302.364105	-141.937469	137.625366
7965.872401	299.208069	-140.768555	132.540604
7965.876220	295.584442	-139.073639	129.676804
7965.879479	291.785492	-137.846283	124.416710
7965.882802	288.570984	-136.326721	120.793098
7965.886154	285.414948	-135.333145	117.052605
7965.889491	282.375824	-134.807129	113.253647
7965.892826	279.219757	-133.521332	110.156059
7965.896247	276.355927	-131.943314	108.285805
7965.899549	273.199890	-130.949738	104.428406
7965.902870	270.569855	-129.722397	101.097023
7965.906616	267.706024	-129.021042	98.642319
7965.909931	265.251312	-128.202805	96.304497
7965.913311	262.971954	-127.267685	93.148453
7965.916638	260.108124	-126.157227	90.284630
7965.920011	258.237854	-124.754532	89.349503
7965.923365	256.133850	-123.760956	86.719460
7965.926689	253.971375	-122.708939	85.024551
7965.929996	251.925781	-122.182938	83.797195
7965.933378	249.412628	-121.072464	81.050270
7965.936700	247.717712	-119.026886	79.121567
7965.940030	246.198120	-119.552902	78.127998
7965.943782	244.210968	-118.267090	75.673294
7965.947140	242.749847	-117.390419	73.686150
7965.950440	241.405609	-115.812393	73.510818
7965.953754	239.301575	-114.818817	71.289894
7965.957061	237.489777	-114.585037	69.185852
7965.960342	235.911743	-113.708359	68.426071
7965.963718	234.041504	-112.364113	67.140274
7965.967460	232.755707	-112.305672	65.971367
7965.970807	231.236115	-110.902985	64.510231
7965.974138	229.716553	-110.552307	62.289307
7965.977446	228.722961	-109.441849	61.763298
7965.980850	227.495605	-108.565170	59.776154
7965.984193	225.800690	-108.798958	59.191704
7965.987467	224.398010	-108.506721	57.847458
7965.990776	223.755096	-107.630035	56.210991
7965.994114	221.417297	-106.870255	54.749855
7965.997504	220.423737	-106.110466	54.925194
7966.000855	219.254822	-105.526001	53.288727
7966.004619	217.969025	-105.233788	52.002930
7966.007919	217.209229	-104.824661	51.827591
7966.011244	215.514313	-104.298660	51.418472
7966.014648	215.046753	-103.421974	50.308006
7966.017923	214.345398	-104.181763	49.548218
7966.021263	213.001160	-103.538872	48.554649
7966.024546	212.299835	-103.246635	48.554649
7966.028305	210.780243	-103.071304	47.853302
7966.031941	210.371124	-102.954407	47.502632
7966.035271	210.195801	-102.662193	46.859734
7966.038612	209.143768	-102.428413	47.561073
7966.041937	208.793091	-102.720627	47.035072
7966.045269	208.150208	-102.369965	46.275276
7966.048606	207.741089	-102.486847	45.223259
7966.051943	207.857971	-102.662193	45.632378
7966.055274	206.981293	-102.662193	45.457039
7966.058602	206.981293	-101.785500	45.223259
7966.061960	207.156647	-102.779076	44.931038
7966.065274	206.747528	-102.019287	44.931038
7966.068609	207.098175	-102.603745	45.573936
7966.071940	207.624207	-101.960846	44.638809
7966.075270	206.747528	-101.785500	45.106369
7966.078605	206.864410	-101.902397	44.872589
7966.082387	207.448853	-101.259506	45.398598
7966.085745	206.981293	-101.727066	44.872589
7966.089028	207.039734	-101.434837	45.047928
7966.092370	207.039734	-101.551720	45.106369
7966.095689	207.974854	-101.785500	45.398598
7966.099027	208.559326	-102.019287	44.521919
7966.102358	209.026886	-101.960846	44.814148
7966.105731	209.903564	-101.785500	45.573936
7966.109027	210.020447	-102.019287	46.275276
7966.112381	209.903564	-102.369965	45.866165
7966.116211	210.488007	-103.071304	46.684395
7966.119537	210.955597	-102.895973	46.742836
7966.122785	211.423157	-103.129753	47.502632
7966.126117	211.247803	-103.363533	47.677963
7966.129458	211.773804	-103.831100	47.794853
7966.132805	212.533600	-104.064880	48.028633
7966.136136	213.527191	-104.883110	48.846870
7966.139545	213.468719	-104.707779	49.431328
7966.142862	214.286957	-105.233788	50.366447
7966.146532	215.163635	-106.052017	50.483337
7966.149916	215.864990	-106.168915	51.126244
7966.153279	216.332550	-106.694908	52.061371
7966.156611	218.202789	-107.688484	52.821159
7966.159951	218.845703	-108.682060	53.931618
7966.163297	219.605499	-108.974289	54.574524
7966.166627	220.715942	-110.201645	55.451202
7966.169906	221.475739	-110.902985	55.977211
7966.173296	223.346008	-111.779663	57.789009
7966.176611	223.755096	-112.539459	58.490356
7966.179993	225.450012	-113.416130	60.594391
7966.183742	226.735840	-114.175926	61.763298
7966.187060	228.372284	-114.701927	62.639977
7966.190425	229.599640	-115.870834	64.101112
7966.193737	231.937469	-116.864403	65.796028
7966.196997	233.164795	-117.916428	67.374054
7966.200294	234.801300	-118.676224	68.426071
7966.204075	237.255981	-119.552902	70.646996
7966.207379	238.308014	-120.546463	72.867912
7966.210678	240.704285	-120.897141	73.277039
7966.214093	242.574524	-122.241379	75.848633
7966.217419	244.210968	-123.410278	78.478668
7966.220752	247.074829	-123.702515	80.115143
7966.224078	248.477509	-125.163651	81.517830
7966.227378	251.341309	-126.274109	83.797195
7966.230738	253.854462	-127.209229	85.784340
7966.234470	255.724701	-127.559906	89.057274
7966.237811	258.004089	-128.378143	90.693748
7966.241173	260.809479	-129.663940	93.382233
7966.244472	262.562836	-131.241959	95.252487
7966.247833	265.485107	-131.767975	98.583870
7966.251119	267.238434	-133.404449	100.746353
7966.254486	270.511383	-134.514908	103.493279
7966.257799	272.206299	-135.859146	107.116898
7966.261142	274.602570	-137.495621	108.870255
7966.264530	277.115723	-138.606079	112.260086
7966.268266	279.745758	-140.300995	115.883690
7966.271918	282.726471	-141.820572	119.098198
7966.275250	284.888947	-143.398590	122.604912
7966.278586	287.869659	-144.859726	125.819405
7966.281914	290.382812	-146.320862	128.975449
7966.285262	293.188171	-148.600235	133.008163
7966.288583	296.168884	-149.827591	137.216248
7966.291912	299.500305	-152.282288	141.365860
7966.295243	302.539429	-153.977219	146.275269
7966.298575	305.169464	-155.438339	149.898880
7966.301910	308.617737	-158.009933	155.158966
7966.305245	312.358246	-159.763306	159.893036
7966.308581	315.572754	-161.107544	165.328461
7966.311909	318.553467	-163.620697	170.939209
7966.315288	321.943298	-165.374054	176.199295
7966.318581	325.742249	-167.536530	182.277603
7966.322342	329.774963	-170.108124	189.115723
7966.325666	333.398590	-171.919922	195.603165
7966.329033	337.080627	-173.907074	202.733490
7966.332332	341.347168	-176.127991	209.630035
7966.335666	345.613647	-177.472244	216.877274
7966.338997	349.704865	-179.576279	224.475143
7966.342333	354.029785	-181.738754	232.540604
7966.345711	357.594971	-183.492111	240.021606
7966.349023	362.036804	-185.479263	248.613083
7966.352863	366.770874	-187.466400	256.386353
7966.356083	370.862061	-188.752197	265.562256
7966.359422	375.245453	-190.797791	275.088837
7966.362761	378.810638	-192.784912	284.498535
7966.366161	383.018707	-194.713623	294.434265
7966.369450	387.869659	-196.759216	304.311523
7966.372937	392.311523	-198.629456	314.831665
7966.376172	395.467560	-200.149048	324.416718
7966.379428	399.850952	-202.194626	335.404449
7966.383215	403.299225	-203.655746	347.327301
7966.386556	407.565765	-205.876663	358.548798
7966.389985	411.364685	-208.097610	370.062561
7966.393307	415.280518	-209.558731	382.277618
7966.396607	418.553467	-212.071884	394.317383
7966.399935	422.177094	-213.942139	407.350677
7966.403254	425.216248	-215.695511	421.260681
7966.406548	428.196960	-217.682632	435.696686
7966.409926	430.768555	-220.663361	449.840454
7966.413264	433.866150	-221.890701	464.568695
7966.416624	435.853302	-223.994736	480.348907
7966.420384	438.191101	-225.397430	496.129181
7966.423810	440.178253	-227.501480	511.675629
7966.427088	442.457581	-229.313263	528.449402
7966.430391	443.977173	-230.949738	545.047913
7966.433729	444.853882	-232.060211	562.172363
7966.437031	446.431885	-233.579788	579.998230
7966.440394	447.951477	-235.157806	598.116272
7966.443738	447.776154	-236.092941	616.643494
7966.447011	447.717682	-236.268265	636.573303
7966.450741	447.191681	-237.495621	655.451172
7966.454040	446.373474	-236.969604	674.738159
7966.457369	445.204559	-237.320282	694.784912
7966.460712	442.983643	-237.144958	715.357666
7966.464012	441.405609	-236.151367	734.118591
7966.467320	438.834015	-234.865585	754.574524
7966.471119	436.087036	-233.521332	775.907043
7966.474451	432.171204	-232.293976	797.940979
7966.477765	428.080048	-230.423721	817.695496
7966.481039	423.287537	-228.261246	839.261780
7966.484344	418.202789	-225.572769	859.425537
7966.487711	412.884277	-222.299820	880.758057
7966.491008	405.637054	-219.026886	900.863220
7966.494807	398.915833	-215.637054	920.208618
7966.498562	391.551727	-211.428986	941.307434
7966.501890	382.375793	-206.811798	961.003479
7966.505225	374.135010	-201.610168	979.998291
7966.508563	364.140839	-197.986572	998.350098
7966.511892	354.088257	-192.317352	1016.351318
7966.515251	342.340729	-187.057281	1033.592651
7966.518558	331.411438	-181.972534	1050.775635
7966.521889	318.962585	-176.420227	1067.257202
7966.525230	306.104614	-171.043243	1081.810059
7966.528561	292.662170	-163.971359	1097.707153
7966.531889	278.810638	-156.957916	1111.266479
7966.535222	263.907074	-150.879608	1125.234985
7966.538557	248.302185	-144.216827	1138.385132
7966.541890	232.521912	-137.378723	1149.840454
7966.545222	215.806549	-130.248383	1160.594360
7966.548551	198.857391	-122.533600	1170.004028
7966.551888	180.563995	-114.818817	1178.946167
7966.555221	162.445923	-106.578026	1185.959717
7966.559013	143.743408	-98.220337	1192.739380
7966.562332	124.164230	-90.037987	1199.168213
7966.565669	105.227936	-81.095856	1202.382812
7966.569011	85.531853	-72.036827	1205.714233
7966.572312	65.718872	-62.218002	1207.526001
7966.575645	45.730568	-52.574520	1208.987061
7966.578980	24.807129	-42.989479	1207.818237
7966.582318	4.117474	-32.644653	1204.895874
7966.586084	-15.052601	-22.708942	1202.967163
7966.589462	-34.690239	-11.896552	1198.174683
7966.592822	-54.737000	-1.084161	1192.563965
7966.596150	-73.264168	9.903565	1186.193481
7966.599422	-91.966690	21.125072	1179.180054
7966.602749	-110.493858	31.645237	1170.471680
7966.606055	-128.845703	42.983635	1160.536011
7966.609425	-146.145538	53.679134	1149.723511
7966.612758	-163.912903	64.666862	1137.157837
7966.616197	-180.628265	74.953239	1124.825806
7966.619483	-197.109863	85.239624	1112.435425
7966.623269	-211.779663	95.292221	1097.181152
7966.626626	-226.800110	105.403275	1082.628296
7966.629911	-240.768555	115.046753	1066.555786
7966.633274	-254.269440	123.988892	1049.431274
7966.636568	-267.361206	133.573929	1033.066650
7966.639902	-280.394501	140.996490	1016.292847
7966.643221	-292.317383	149.295731	998.350098
7966.646542	-304.473999	157.244308	980.173523
7966.649900	-314.760376	163.556396	962.172363
7966.653683	-324.696106	170.628281	943.528320
7966.657006	-334.982483	176.239044	925.351868
7966.660287	-343.632385	181.791351	906.532471
7966.663616	-352.399200	186.700760	887.713013
7966.666923	-359.763306	192.019287	868.016968
7966.670257	-368.004089	196.402679	849.723511
7966.673641	-374.433075	199.967850	830.436584
7966.676937	-381.855652	204.059036	811.851013
7966.680715	-386.706635	207.273529	792.388672
7966.684038	-392.609589	209.026886	774.270569
7966.687343	-397.168335	211.540039	756.386292
7966.690689	-401.960846	213.877853	736.807129
7966.694032	-405.058472	215.981873	717.987671
7966.697416	-408.389832	218.027466	699.518982
7966.700699	-410.844543	219.137924	682.511414
7966.704056	-412.481018	220.715973	664.101074
7966.707408	-415.695496	220.949738	646.684387
7966.711162	-415.987701	222.177094	628.741638
7966.714503	-416.338440	222.878418	610.740479
7966.717903	-417.624207	223.988907	593.323792
7966.721224	-417.273560	224.339569	576.491516
7966.724547	-417.507294	224.222672	560.185242
7966.727859	-416.279968	224.164246	543.469849
7966.731168	-415.286377	224.339569	526.929871
7966.734476	-413.766785	224.690231	511.500275
7966.738262	-411.779663	224.047348	496.187622
7966.741871	-410.493896	223.755112	480.524261
7966.745201	-407.922241	223.755112	466.322021
7966.748532	-404.883118	222.995316	451.360016
7966.751869	-402.077759	221.826431	437.917603
