time (s)	magX	magY	magZ
8781.306375	-271.861481	164.140854	203.142593
8781.309682	-276.478668	165.952667	210.740494
8781.313015	-279.985382	168.056686	218.981293
8781.316354	-283.141449	169.751617	226.812958
8781.319659	-287.524841	171.212738	235.521317
8781.323004	-291.499115	172.732315	244.112808
8781.326318	-294.772064	174.777908	253.756271
8781.330122	-298.629456	177.291061	261.997101
8781.333740	-302.603760	178.693756	272.166565
8781.337092	-305.876678	180.096436	281.634735
8781.340405	-309.324951	181.557556	292.563995
8781.343732	-312.597900	183.661606	302.441284
8781.347070	-316.104645	185.531860	312.786102
8781.350399	-319.552917	186.817642	324.533630
8781.353731	-322.358276	189.097015	335.813568
8781.357080	-325.397430	190.441269	347.970184
8781.360399	-328.319702	192.603745	359.367065
8781.363730	-330.599091	193.421967	371.757446
8781.367063	-332.820007	194.590881	384.732330
8781.370400	-336.034485	195.116898	396.947418
8781.373730	-337.963196	196.519577	410.798981
8781.377070	-339.424347	198.214493	425.059631
8781.380433	-341.645264	198.857391	438.794281
8781.383733	-342.463470	199.558731	452.353607
8781.387488	-344.041504	200.143188	467.841614
8781.390822	-344.450623	200.727646	483.563416
8781.394153	-344.625946	200.844543	499.109894
8781.397531	-344.976624	200.026306	514.656311
8781.400854	-344.684387	199.792511	530.787231
8781.404181	-344.450623	199.149628	546.333679
8781.407488	-343.457031	197.630035	563.282837
8781.410854	-341.995911	196.461136	579.998230
8781.414149	-341.177673	194.883118	597.531860
8781.417486	-338.722961	192.603745	615.532959
8781.421283	-336.735840	189.973709	632.423706
8781.424610	-333.813568	186.759201	649.548218
8781.427987	-329.780853	184.070724	668.426025
8781.431319	-326.215668	180.271774	685.082947
8781.434671	-321.364685	175.713028	703.317932
8781.437916	-316.396851	171.329636	721.202209
8781.441273	-311.662781	166.595551	739.320251
8781.444574	-304.883118	161.393921	757.204529
8781.447930	-298.454132	155.432495	774.328979
8781.451263	-291.148468	149.471069	792.856201
8781.454701	-282.966125	143.042084	809.746887
8781.458435	-274.374634	136.320877	827.280457
8781.461788	-264.789612	129.424316	843.703735
8781.465127	-254.912323	122.001755	859.074768
8781.468546	-244.099945	113.877846	874.854980
8781.471875	-233.462891	106.338394	890.167664
8781.475155	-221.949158	97.805374	904.486816
8781.478505	-210.260071	90.149033	918.805969
8781.481842	-198.103455	82.025131	931.605469
8781.485134	-184.602570	73.258324	946.099915
8781.488489	-170.049683	65.134430	957.321411
8781.492257	-156.431915	55.900059	968.133789
8781.495562	-141.236115	46.315022	979.296814
8781.498892	-126.040321	37.898888	986.661011
8781.502169	-111.195213	28.489189	994.434204
8781.505522	-95.122734	19.196377	1002.441284
8781.508876	-78.290474	9.319112	1008.870300
8781.512158	-62.334892	0.084746	1014.831665
8781.515479	-45.794861	-9.383401	1019.507324
8781.519305	-28.787262	-18.442432	1022.078857
8781.522616	-11.428989	-27.910580	1024.592041
8781.525598	4.935709	-37.261837	1025.644043
8781.529294	22.410870	-46.320866	1025.351929
8781.532598	40.236702	-55.905907	1024.825806
8781.535921	57.068962	-65.549393	1022.897095
8781.539215	73.725891	-74.608421	1018.805908
8781.542565	90.499702	-84.076561	1014.481079
8781.545889	106.922852	-93.018707	1009.980713
8781.549657	122.995323	-101.434837	1003.843933
8781.552990	138.191116	-111.312103	995.252502
8781.556348	153.854462	-119.552902	987.654541
8781.559639	169.225586	-128.202805	977.192871
8781.562931	183.778473	-136.385147	966.906494
8781.566284	197.863831	-143.983047	956.678528
8781.569581	211.189362	-151.639389	944.463379
8781.572934	224.339569	-158.945053	930.553467
8781.576728	237.022217	-165.783157	915.883667
8781.580376	248.711273	-172.036819	902.032166
8781.583705	260.634125	-178.232025	887.245422
8781.587048	270.745178	-184.368790	871.056030
8781.590371	280.680908	-188.985977	854.866760
8781.593715	290.675049	-194.187607	838.034485
8781.597089	299.266510	-198.395660	821.319092
8781.600378	308.267090	-202.603729	803.960876
8781.603711	315.338989	-206.461136	786.661011
8781.607038	322.819977	-210.201630	769.478027
8781.610378	330.008759	-211.955002	751.593811
8781.613710	336.262421	-215.286377	733.767944
8781.617045	342.223816	-216.572174	715.240784
8781.620373	347.074799	-218.383987	698.934509
8781.623710	352.042664	-219.786682	680.874939
8781.627045	355.432465	-221.306259	663.633545
8781.630371	359.932770	-221.715363	645.047913
8781.633705	362.445923	-222.650482	627.981873
8781.637466	364.725281	-222.475159	610.857361
8781.640833	366.946198	-222.767380	594.784912
8781.644155	368.758026	-223.001175	577.192871
8781.647489	370.043823	-223.001175	560.185242
8781.650829	370.920502	-222.884277	544.288147
8781.654126	371.504974	-221.656921	528.098755
8781.657462	371.680298	-221.130936	511.558746
8781.660794	371.329620	-220.137344	496.713623
8781.664118	371.329620	-219.903580	481.576294
8781.667906	371.095825	-217.974869	465.854492
8781.671247	369.517822	-217.098206	450.074249
8781.674682	367.881348	-215.870850	436.105804
8781.677957	366.829346	-214.760391	421.494476
8781.681299	364.491516	-213.123901	407.993591
8781.684594	362.621277	-212.305679	394.375793
8781.687876	360.166565	-210.610764	381.926971
8781.691221	357.711853	-209.032730	368.952087
8781.694575	354.906494	-207.396255	356.152557
8781.697903	352.101105	-206.344238	343.879028
8781.701327	349.763275	-204.357117	332.306854
8781.704647	346.081238	-202.486862	320.033325
8781.708344	342.866760	-200.265915	309.162476
8781.711660	339.301575	-198.687897	298.817657
8781.715072	336.262421	-196.525421	288.881958
8781.718398	332.814148	-194.772064	279.764465
8781.721740	329.015198	-192.609589	268.192291
8781.725076	325.157806	-190.856232	259.074829
8781.728390	322.118622	-188.343063	250.132645
8781.731679	318.202789	-186.531265	241.190536
8781.735058	314.812958	-184.485687	232.657501
8781.738823	311.247803	-182.264755	224.650497
8781.742192	307.507294	-180.160721	216.526581
8781.745521	304.701904	-178.056686	209.805374
8781.748830	301.662781	-175.835770	202.558136
8781.752214	297.980713	-173.731735	195.194031
8781.755494	294.064880	-171.569260	189.115723
8781.758811	290.850372	-169.173004	182.336060
8781.762110	287.518982	-166.893631	175.907059
8781.765967	284.304504	-164.731155	169.711868
8781.769272	281.148468	-162.977783	163.925766
8781.772582	278.167755	-160.873749	158.548798
8781.775951	275.011688	-158.945053	152.938049
8781.779241	271.504974	-156.665695	147.853287
8781.782588	268.699585	-154.327881	143.236115
8781.785876	266.303314	-153.158966	138.794266
8781.789227	263.030396	-150.821152	133.767960
8781.792597	260.341919	-148.892456	129.618347
8781.795901	257.068970	-146.613098	126.403862
8781.799648	254.205139	-145.502640	121.436012
8781.803001	251.633545	-143.983047	118.221504
8781.806335	248.828186	-141.586792	113.838112
8781.809734	245.964325	-140.184097	111.149620
8781.813026	243.509644	-138.722961	106.707771
8781.816356	240.645813	-137.028061	103.201050
8781.819639	238.249573	-135.800705	100.045013
8781.822990	235.502625	-133.988892	96.187614
8781.826340	232.580353	-132.644653	92.973122
8781.829667	230.359436	-131.767975	90.927528
8781.833415	227.495605	-129.663940	87.362366
8781.837014	224.865570	-128.611923	84.907661
8781.840356	222.703094	-127.267685	81.868500
8781.843686	219.956177	-126.098770	78.478668
8781.847017	217.969025	-124.988312	76.549973
8781.850353	215.923431	-123.527176	74.095268
8781.853688	213.819397	-122.182938	72.400352
8781.857021	211.598480	-121.540039	69.361198
8781.860351	209.319122	-120.371124	67.374054
8781.863708	207.156647	-118.910004	65.153130
8781.867015	205.695496	-117.857979	63.282883
8781.870344	203.123901	-117.448868	61.704849
8781.873685	201.721222	-116.221512	60.126823
8781.877016	200.318512	-114.526588	58.548805
8781.880372	198.331390	-114.000580	56.152542
8781.884107	197.104034	-112.597893	55.275864
8781.887449	195.116882	-112.071892	53.639397
8781.890773	194.181763	-111.019875	52.178261
8781.894103	192.837524	-109.967865	51.301575
8781.897436	191.259491	-108.798958	50.015778
8781.900780	189.973694	-108.097595	49.022209
8781.904098	188.337219	-107.220924	48.028633
8781.907456	187.577423	-106.227348	46.392166
8781.910791	186.525421	-105.759789	45.457039
8781.914124	185.473419	-104.649330	44.989479
8781.917924	184.538269	-104.123314	43.353012
8781.921205	183.720062	-103.246635	43.411461
8781.924515	182.551147	-102.720627	41.015198
8781.927850	181.499115	-102.311516	41.015198
8781.931227	180.330231	-101.317940	39.261833
8781.934543	179.862640	-100.791939	38.794273
8781.937938	178.869080	-100.558159	38.502045
8781.941302	178.343079	-100.090599	38.151375
8781.944526	177.115723	-99.623032	36.690239
8781.948294	176.355927	-99.155457	36.748688
8781.951809	175.946808	-99.038574	35.988892
8781.955082	175.128571	-98.571014	34.586205
8781.958431	174.368774	-98.161896	34.936882
8781.961701	173.784332	-97.694336	33.651085
8781.964995	172.498535	-97.460556	33.183517
8781.968357	171.855652	-97.285210	32.774399
8781.971753	171.563416	-96.583862	32.891289
8781.975049	170.862061	-96.408531	32.248390
8781.978393	170.745178	-96.583862	31.780832
8781.981686	169.751617	-95.824081	31.780832
8781.985433	169.342499	-95.765633	31.021040
8781.988752	169.167145	-95.707184	30.845705
8781.992157	168.465790	-95.473404	30.904150
8781.995484	168.290466	-95.473404	30.027472
8781.998770	167.822906	-95.181175	29.501463
8782.002139	167.355347	-94.772064	29.443018
8782.005490	167.530670	-94.655174	29.150789
8782.008844	167.180023	-95.122742	28.858564
8782.012199	167.647583	-94.479836	28.975454
8782.015523	167.180023	-94.888962	28.741674
8782.019328	167.238464	-94.538284	28.624784
8782.022669	167.355347	-94.070717	28.332552
8782.025976	167.706024	-94.129166	28.507891
8782.029320	167.530670	-94.246048	27.514318
8782.032610	168.465790	-94.187614	28.624784
8782.035964	168.115143	-94.596725	29.501463
8782.039341	168.407379	-94.070717	30.027472
8782.042675	168.933380	-94.596725	30.319696
8782.046022	169.050262	-94.538284	30.378141
8782.049329	170.043823	-94.362946	30.436586
8782.053058	170.511414	-95.356522	30.495035
8782.056361	171.388062	-95.473404	30.904150
8782.059722	170.920502	-95.414955	31.547049
8782.063010	171.621857	-95.181175	31.897722
8782.066312	172.264740	-95.765633	32.306839
8782.069629	172.907654	-96.350082	33.066628
8782.072927	173.258331	-96.525429	32.832848
8782.076799	173.901215	-96.934540	34.293983
8782.080334	174.368774	-97.168327	34.586205
8782.083666	174.777924	-97.752769	34.586205
8782.086993	176.180603	-98.804794	35.112213
8782.090324	176.706604	-98.687897	35.813560
8782.093663	177.641724	-99.155457	35.813560
8782.096991	178.518402	-99.798370	36.514900
8782.100326	179.395081	-100.499710	36.865578
8782.103678	180.563995	-100.967270	38.502045
8782.107033	181.031555	-101.610168	38.852715
8782.110322	181.557556	-101.902397	40.080070
8782.113657	182.551147	-102.779076	40.021622
8782.116989	183.252502	-103.363533	41.190529
8782.120320	184.362946	-103.714203	41.716537
8782.123660	185.765625	-104.473991	42.885445
8782.127425	186.525421	-105.350670	42.943893
8782.130748	187.343658	-106.110466	44.288132
8782.134081	189.097015	-106.578026	45.047928
8782.137433	189.856812	-107.571602	46.567505
8782.140762	191.668610	-108.097595	48.320869
8782.144096	193.421967	-108.740509	49.080650
8782.147438	194.181763	-109.792519	50.892464
8782.150813	196.168915	-110.727638	52.879601
8782.154072	197.571594	-112.305672	53.639397
8782.157421	199.558746	-112.831673	55.392754
8782.161183	201.136780	-113.766800	56.678551
8782.164502	202.597900	-114.701927	58.139687
8782.167901	204.760376	-116.221512	60.243713
8782.171193	206.455292	-116.747520	62.055527
8782.174584	209.436005	-117.682648	63.867332
8782.177900	211.072479	-118.968430	65.854477
8782.181197	213.468719	-119.552902	68.133842
8782.184493	215.455872	-121.481598	70.997665
8782.187829	217.969025	-122.299820	72.984802
8782.191672	219.839264	-123.001175	74.971947
8782.195024	221.826416	-124.579193	77.543541
8782.198373	224.164246	-125.923447	80.173584
8782.201693	226.443604	-126.917007	82.219177
8782.205016	229.073639	-127.852142	85.784340
8782.208316	231.236115	-130.073059	88.122147
8782.211784	233.983032	-131.417297	90.635307
8782.215099	236.087097	-132.819977	94.200462
8782.218404	239.009369	-134.281128	97.356522
8782.221697	240.762695	-135.040909	100.571007
8782.225045	243.217407	-137.378723	104.077728
8782.228368	246.431885	-138.898315	108.227356
8782.232141	249.237305	-140.534775	111.091179
8782.235453	251.867310	-142.346588	115.007019
8782.238796	254.322021	-143.690826	119.039742
8782.242119	257.010529	-145.268860	122.488014
8782.245542	260.049683	-147.139099	126.988319
8782.248851	262.796600	-148.424896	131.663925
8782.252156	266.069550	-150.119812	136.398010
8782.255476	268.348907	-152.048508	140.489182
8782.258793	271.329651	-154.210999	145.223267
8782.262643	274.602570	-155.496780	149.723541
8782.265939	278.284607	-157.834595	155.568085
8782.269248	280.797760	-159.997086	160.419052
8782.272553	284.596710	-161.575104	166.380478
8782.275887	287.811218	-163.912918	172.575684
8782.279177	291.434814	-165.198715	178.829330
8782.282533	294.824677	-167.244293	185.258316
8782.285862	297.980713	-168.939224	191.395096
8782.289585	301.896545	-170.634140	198.817642
8782.292916	305.052582	-172.621277	206.357101
8782.296290	308.909973	-174.666870	214.247223
8782.299593	312.241394	-175.952652	222.254227
8782.302974	315.864990	-178.582703	230.728821
8782.306304	320.248383	-180.511398	238.618927
8782.309635	323.112213	-181.563416	247.794846
8782.312917	327.144928	-183.667450	256.444794
8782.316268	330.885437	-185.479263	266.029816
8782.319634	334.509064	-187.817078	276.491547
8782.323345	338.483337	-189.979538	286.719482
8782.326972	341.814728	-191.323792	297.005859
8782.330301	345.263000	-192.960251	307.000000
8782.333635	348.009949	-194.596725	318.805969
8782.336970	351.224426	-196.642319	329.793701
8782.340303	354.672699	-198.278793	342.008759
8782.343634	358.120972	-200.558151	353.814728
8782.346967	360.049683	-201.727066	366.380493
8782.350301	363.030365	-203.305084	378.770905
8782.353650	365.017517	-204.766205	392.096466
8782.356966	367.589142	-206.811798	405.714203
8782.360296	370.043823	-208.389847	418.864441
8782.363631	371.738739	-210.026291	432.248383
8782.366969	373.608978	-210.727661	446.742859
8782.370299	375.070129	-211.838104	461.587982
8782.374082	376.180603	-213.065460	477.543549
8782.377416	377.057251	-214.000595	492.563995
8782.380719	377.407959	-214.935715	507.467621
8782.384096	377.466370	-215.344818	523.949097
8782.387394	377.349487	-215.695511	540.138489
8782.390718	377.817047	-216.221512	556.094055
8782.394050	377.583282	-215.403275	573.452332
8782.397407	376.239014	-216.104614	591.511963
8782.400716	374.953247	-215.344818	607.876648
8782.404077	373.258331	-214.585022	625.234924
8782.407877	370.686707	-214.175919	642.476318
8782.410814	368.465790	-211.779648	660.652832
8782.414474	365.368195	-210.727661	678.361755
8782.417812	362.621277	-209.091171	695.895325
8782.421146	358.354736	-206.753357	713.721191
8782.424499	353.328461	-203.538849	731.371704
8782.427863	348.594360	-200.675049	748.846863
8782.431231	342.516052	-198.103439	767.958435
8782.434555	336.554626	-194.246063	785.725891
8782.437845	329.658081	-189.628876	802.850403
8782.441599	321.651062	-185.596146	820.150146
8782.444922	313.936310	-181.914093	837.040894
8782.448346	304.994141	-176.478668	852.938049
8782.451662	295.642883	-170.867920	868.659851
8782.455051	285.239624	-165.607834	884.556946
8782.458334	275.245483	-159.529510	899.168274
8782.461670	264.549957	-153.684982	913.604309
8782.464999	252.744019	-147.139099	926.520691
8782.468366	240.704285	-140.710114	939.846313
8782.471745	227.437164	-134.047333	951.769104
8782.475045	214.754547	-127.209229	963.808899
8782.478804	199.734070	-119.786682	973.802979
8782.482137	185.707184	-112.188782	983.855591
8782.485420	171.797180	-104.473991	993.323792
8782.488698	156.893646	-96.525429	1000.804749
8782.492002	140.528931	-88.635300	1006.415527
8782.495394	125.216248	-80.511398	1011.675598
8782.499157	109.319107	-72.270607	1017.111084
8782.502047	92.662186	-63.912918	1020.384033
8782.505744	76.706604	-55.379898	1021.202271
8782.509046	60.225014	-46.262424	1023.949097
8782.512384	43.743423	-37.378727	1024.416748
8782.515665	26.677380	-28.202805	1023.306274
8782.519036	9.786673	-19.143776	1022.897095
8782.522344	-6.694916	-9.208064	1019.273560
8782.526076	-23.059612	-0.032145	1015.416138
8782.529445	-38.839859	9.845120	1010.097534
8782.532740	-54.912338	20.482174	1005.071289
8782.536065	-70.926353	29.833431	997.648682
8782.539369	-86.355934	39.009350	990.752197
8782.542652	-101.785500	48.769722	981.576233
8782.545973	-116.747505	58.120979	972.049683
8782.549388	-131.300415	67.998245	962.055542
8782.553138	-146.028625	77.291054	950.717102
8782.556456	-159.529510	85.882523	937.391541
8782.559772	-173.147278	94.766220	924.416687
8782.563088	-185.771484	104.643486	911.851013
8782.566485	-197.752777	112.182930	898.408447
8782.569768	-210.084747	120.715958	882.803589
8782.573128	-220.897125	128.430740	868.484436
8782.576415	-231.592651	135.794861	851.593750
8782.580114	-241.762146	142.983627	836.339539
8782.583628	-251.580963	149.178848	820.150146
8782.586941	-260.698425	155.783173	803.610168
8782.590277	-269.523682	161.393921	786.894775
8782.593608	-277.647583	166.654007	769.828735
8782.596940	-284.485687	171.972534	752.704224
8782.600277	-291.849823	176.063705	736.865601
8782.603611	-297.752808	179.804214	719.974854
8782.606939	-304.181763	183.310928	703.025696
8782.610272	-309.383392	186.759201	686.134949
8782.613612	-313.708374	189.915253	669.887146
8782.616940	-317.858002	192.311523	653.230225
8782.620693	-322.650513	195.000000	636.924011
8782.624051	-325.514313	196.694916	621.494446
8782.627414	-328.611938	198.214493	605.188171
8782.630721	-330.599091	199.324951	589.875488
8782.634077	-332.469330	200.610748	573.393860
8782.637363	-335.040924	201.312103	557.204529
8782.640699	-335.976044	202.130325	542.710083
8782.644025	-337.261841	203.065460	528.040344
8782.647363	-337.495636	202.890121	513.136719
8782.651143	-337.670959	203.299240	499.752777
8782.654476	-338.138519	202.890121	484.440094
8782.657912	-336.794281	203.416138	470.880798
8782.661215	-336.151398	203.240784	455.977203
8782.664516	-334.924042	202.481003	441.774994
8782.667787	-333.638214	201.779663	429.384552
8782.671140	-331.534210	201.312103	415.357666
8782.674470	-330.073059	200.552307	402.908844
8782.677808	-328.495026	199.149628	391.102875
8782.681155	-325.923462	198.623611	378.069550
8782.684552	-323.176514	196.811813	367.023376
8782.687899	-320.955597	196.344254	355.275848
8782.691538	-318.734680	194.649323	342.885468
8782.694908	-315.052612	194.123322	332.073059
8782.698294	-312.481018	192.486847	321.377563
8782.701661	-309.617187	190.967270	311.149628
8782.705043	-306.811829	188.454117	300.571014
8782.708361	-303.655762	187.051422	290.518433
8782.711667	-299.915283	185.122726	280.699615
8782.715001	-297.226776	183.135590	271.582123
8782.718379	-293.603180	181.440674	263.049103
8782.721694	-290.505554	179.511978	253.522507
8782.725433	-287.232635	177.407944	245.632370
8782.728770	-283.550568	175.245468	237.274689
8782.732041	-280.569855	172.440094	230.319687
8782.735373	-277.180023	170.862076	222.429565
8782.738656	-274.023956	169.108704	215.883682
8782.741975	-270.458801	166.770889	209.045578
8782.745336	-266.835205	164.900635	202.850372
8782.749143	-263.737579	162.738159	195.953827
8782.752462	-260.406189	160.634125	190.050842
