time (s)	magX	magY	magZ
7818.461912	-232.060211	129.658096	99.577446
7818.465244	-235.450043	131.294571	103.551727
7818.468616	-238.664551	132.463470	107.350677
7818.471952	-241.353027	134.041489	110.272942
7818.475292	-244.333740	135.502625	114.539452
7818.479040	-247.548218	137.431335	118.221504
7818.482325	-251.113403	139.009354	122.254234
7818.485654	-254.620117	141.347168	125.994743
7818.489001	-257.074829	143.100525	130.144363
7818.492320	-260.815308	144.561661	134.177094
7818.495593	-263.503784	146.548798	139.261826
7818.499422	-267.010529	148.594391	144.171234
7818.502715	-270.458801	151.224426	147.911743
7818.506085	-274.023956	153.445358	152.295151
7818.509373	-277.296906	155.432495	158.022781
7818.512697	-280.336090	157.594971	162.464630
7818.516031	-284.018127	159.699005	167.023376
7818.519324	-286.998840	161.510818	172.517242
7818.522654	-290.739349	163.439499	177.660431
7818.526394	-293.778503	165.952667	183.388062
7818.530029	-297.402100	167.881363	188.765045
7818.533358	-301.843964	169.459381	195.194031
7818.536692	-305.409119	172.030975	202.149033
7818.540028	-309.149628	174.135010	208.227356
7818.543360	-312.948578	175.713028	215.357681
7818.546691	-317.098206	178.050842	222.020462
7818.550026	-321.656921	180.096436	230.436584
7818.553355	-325.514313	182.200470	238.326691
7818.556689	-330.540619	184.479828	246.567490
7818.560038	-335.099365	185.765640	256.035645
7818.563357	-339.599670	187.285217	264.685577
7818.566690	-344.158386	189.097015	274.796631
7818.570018	-348.541779	190.558151	285.433655
7818.573350	-353.801880	192.895966	295.778503
7818.577157	-358.945068	194.590881	306.883118
7818.580473	-363.562256	195.701340	318.104614
7818.583842	-367.711853	197.571594	330.202820
7818.587111	-372.153748	199.266510	342.943909
7818.590450	-376.361786	200.669189	354.749847
7818.593779	-380.219147	202.656342	368.133850
7818.597109	-384.894775	204.234360	382.102295
7818.600442	-388.226196	205.403275	395.895386
7818.603784	-392.609589	206.689072	409.980713
7818.607551	-395.414948	207.974869	424.767395
7818.610947	-399.564575	209.026886	438.209808
7818.614280	-402.369965	210.663361	452.996490
7818.617589	-404.649353	211.949142	469.127411
7818.620864	-407.746918	212.884277	485.258331
7818.624201	-409.266510	213.877853	500.746368
7818.627543	-411.312073	214.228531	516.526550
7818.630892	-413.357666	215.280548	532.189880
7818.634227	-413.416138	215.864990	548.145508
7818.637646	-415.286377	216.098770	564.042603
7818.640941	-415.637054	216.391006	580.582703
7818.644616	-416.338440	217.033905	597.590271
7818.648002	-416.455292	216.449448	615.883667
7818.651365	-416.163055	216.391006	632.189880
7818.654763	-415.637054	215.514313	650.307983
7818.658067	-413.942139	214.228531	668.367615
7818.661382	-413.533051	212.767380	686.661011
7818.664740	-410.727661	210.721786	705.129700
7818.668048	-409.324951	208.851547	722.721802
7818.671459	-405.818268	205.870834	741.365845
7818.674755	-403.188202	202.831680	761.412598
7818.678088	-399.213928	199.558731	781.225586
7818.681890	-395.765625	195.233780	801.213867
7818.685259	-390.388672	190.616592	821.377502
7818.688600	-385.713043	184.947403	842.476318
7818.691892	-378.699615	179.161316	863.049072
7818.695197	-372.387482	172.907654	883.621826
7818.698595	-364.672729	166.244888	904.369995
7818.701882	-357.016388	159.114548	925.293396
7818.705200	-348.600250	151.049088	947.502563
7818.708566	-338.606079	142.749847	968.367615
7818.712298	-328.144379	134.216843	988.180603
7818.715631	-316.864410	124.339569	1007.116821
7818.718921	-304.707764	115.280533	1027.748047
7818.722336	-291.674469	106.046173	1046.099854
7818.725657	-278.699585	96.227348	1063.808838
7818.728961	-263.912933	86.466980	1080.582642
7818.732304	-249.009369	76.063705	1096.772095
7818.735585	-233.755127	65.426651	1112.493896
7818.738965	-216.981293	55.666275	1126.520630
7818.742317	-200.032135	45.029221	1139.904785
7818.746007	-182.381653	34.859730	1153.405640
7818.749325	-165.023376	24.924021	1164.860840
7818.752614	-146.379303	15.280539	1174.971924
7818.755898	-128.495026	4.117476	1184.673828
7818.759240	-108.565163	-6.402688	1191.687256
7818.762639	-88.752190	-15.403274	1197.414917
7818.766369	-70.458794	-25.514320	1204.136108
7818.769999	-51.054939	-35.157803	1208.285767
7818.773335	-31.358856	-43.807713	1211.266479
7818.776672	-12.247223	-54.210991	1213.370483
7818.779996	8.091759	-63.620689	1214.539429
7818.783330	27.554060	-72.738167	1215.006958
7818.786664	46.139683	-82.147873	1212.961426
7818.790004	64.900642	-91.732903	1211.032715
7818.793336	84.070717	-100.791939	1206.240234
7818.796679	102.890121	-109.675629	1201.447632
7818.799992	120.715958	-119.260666	1195.544678
7818.803334	138.191116	-128.787262	1188.998901
7818.806669	155.666290	-137.670959	1180.115112
7818.810002	173.199890	-145.970200	1172.049683
7818.813328	190.382812	-154.853897	1162.172363
7818.816667	206.922852	-163.796036	1151.476929
7818.820443	222.761536	-172.212158	1139.612427
7818.823757	239.243134	-180.569839	1125.994751
7818.827107	253.971375	-188.752197	1111.675659
7818.830428	268.232025	-196.817642	1096.245972
7818.833752	282.551147	-204.357117	1079.647583
7818.837079	295.526001	-211.604324	1063.808838
7818.840429	309.669769	-217.624191	1044.989502
7818.843747	321.183502	-224.111633	1027.222168
7818.847102	333.457031	-230.189957	1008.052002
7818.850924	345.029205	-234.865585	987.654541
7818.854258	355.666260	-239.599640	967.549377
7818.857506	365.601990	-243.164810	947.327271
7818.860833	375.011688	-247.139099	925.819336
7818.864188	383.486267	-250.061371	903.259399
7818.867528	391.785492	-252.983643	882.511414
7818.870888	399.149597	-255.087677	861.704773
7818.874281	405.870850	-256.139679	841.424316
7818.877586	412.007599	-257.776154	819.916382
7818.880928	417.793671	-258.652832	799.109924
7818.884634	422.293976	-259.354187	778.887756
7818.888024	425.683807	-259.529510	758.315002
7818.891403	430.125641	-259.646393	738.092896
7818.894696	433.398590	-258.769745	718.572144
7818.898103	435.853302	-258.652832	699.460510
7818.901390	437.606628	-257.425476	680.816467
7818.904744	440.295135	-257.250153	662.406189
7818.908047	441.113403	-256.198120	645.106384
7818.911396	442.106934	-255.379913	628.274048
7818.914735	443.100525	-254.386322	609.630005
7818.918059	442.223846	-252.106964	593.265320
7818.921853	442.048523	-250.879608	575.556396
7818.925141	441.522461	-249.944489	559.951477
7818.928506	440.879608	-248.892456	543.820557
7818.931790	439.476898	-247.840424	528.274048
7818.935091	437.197571	-246.145508	513.136719
7818.938456	435.444183	-244.742828	496.947418
7818.941782	434.158386	-243.398605	482.978943
7818.945091	431.937469	-241.879013	468.484528
7818.948882	428.196960	-240.476334	453.873199
7818.952172	425.800690	-238.956741	438.735870
7818.955469	422.235535	-237.320282	425.760986
7818.958803	419.313263	-235.683807	411.558777
7818.962179	416.449432	-234.105789	398.350098
7818.965537	412.942719	-232.644669	385.141449
7818.968838	409.669769	-230.715958	372.575714
7818.972174	405.987701	-229.079498	359.834625
7818.975522	402.422577	-227.326111	347.970184
7818.979367	397.980713	-225.105194	336.339600
7818.982686	394.240204	-223.468750	324.650513
7818.986014	390.791931	-220.780243	313.370544
7818.989393	386.876099	-218.559326	303.025726
7818.992714	382.726471	-216.513733	292.213348
7818.996036	378.635315	-213.649902	282.219177
7818.999381	375.245453	-211.604324	272.867920
7819.002708	371.095825	-208.506714	263.925781
7819.006030	367.822906	-205.993561	253.931625
7819.009348	363.731720	-203.772644	245.632370
7819.013072	359.757446	-201.142609	237.976028
7819.016646	356.016937	-198.687897	230.144363
7819.019977	352.743988	-195.531860	222.546463
7819.023307	349.003510	-193.603165	216.117477
7819.026681	345.555237	-190.797791	209.571594
7819.029974	342.399170	-188.518417	202.850372
7819.033315	338.249542	-186.122147	197.356506
7819.036646	335.385712	-183.199875	191.979523
7819.039974	332.171234	-181.212738	185.842773
7819.043307	328.722961	-179.108719	180.699585
7819.046640	325.742249	-177.472244	175.205719
7819.049971	322.118622	-175.485092	170.179428
7819.053360	318.728790	-173.264175	165.562241
7819.056641	315.981873	-170.926361	160.477493
7819.060394	313.001160	-169.699005	156.327866
7819.063758	309.962006	-167.828766	153.405609
7819.067065	306.630615	-166.718292	148.203964
7819.070426	303.883698	-165.081818	144.346573
7819.073725	300.493866	-163.153137	140.547623
7819.077062	298.272949	-161.692001	136.690231
7819.080393	295.116882	-159.938629	133.475739
7819.083748	291.376373	-158.302155	129.209229
7819.087114	288.161896	-157.659271	125.819405
7819.090417	286.525421	-155.789017	122.546471
7819.094185	283.252472	-154.795441	119.039742
7819.097484	280.914673	-153.626541	115.240799
7819.100815	277.933960	-152.048508	111.675629
7819.104163	274.719452	-150.938049	107.993576
7819.107508	272.440094	-149.827591	105.305084
7819.110898	269.225586	-148.132660	102.441261
7819.114251	267.180023	-146.846878	99.168320
7819.117581	265.192871	-145.502640	96.421394
7819.121231	262.621277	-143.866150	94.083580
7819.124631	259.815918	-142.405029	90.401527
7819.128015	258.179413	-141.469910	88.823494
7819.131317	255.783173	-140.184097	86.544128
7819.134696	254.029785	-138.372299	83.563416
7819.137997	251.458221	-137.144943	81.225601
7819.141305	249.880188	-135.917587	79.589134
7819.144639	248.068390	-134.456451	77.134430
7819.148050	246.315033	-133.638229	76.199303
7819.151362	244.912323	-132.586197	74.329048
7819.154666	243.158966	-131.241959	72.108131
7819.158012	242.516052	-129.956177	70.939224
7819.161825	241.522491	-129.254822	69.478088
7819.165224	240.061371	-128.378143	68.075394
7819.168500	238.717133	-127.559906	66.555817
7819.171794	237.314423	-126.624786	66.322037
7819.175101	236.846863	-126.040329	65.562248
7819.178409	235.853302	-125.338974	64.101112
7819.181741	234.450592	-125.105194	63.224434
7819.185465	234.275269	-124.286972	63.341324
7819.188798	233.340149	-123.877838	61.938637
7819.192117	231.995911	-123.059616	61.061958
7819.195475	231.353027	-122.650497	60.360603
7819.198822	230.943878	-122.358276	60.126823
7819.202094	229.891876	-121.656921	58.782585
7819.205405	228.547638	-121.306244	58.373466
7819.208765	228.664520	-121.364700	57.146118
7819.212130	228.021606	-121.014038	57.438339
7819.215929	226.560486	-120.546463	57.204559
7819.219230	225.625366	-120.663361	56.327881
7819.222621	224.865570	-119.962006	55.801872
7819.225911	224.514893	-120.254242	55.684982
7819.229290	223.404449	-119.669785	54.457634
7819.232662	222.819977	-119.436005	54.165405
7819.235958	222.001740	-119.494446	53.873177
7819.239329	221.651062	-118.910004	53.464058
7819.242598	221.125092	-118.851547	52.470490
7819.245896	220.774414	-118.734650	51.126244
7819.249738	220.306824	-118.851547	51.476913
7819.253285	219.605499	-118.267090	51.067795
7819.256615	219.137939	-118.500870	50.658676
7819.259950	219.196381	-118.150208	50.600235
7819.263281	218.670380	-117.857979	49.665108
7819.266621	218.845703	-117.331970	49.489777
7819.269957	218.085907	-117.507309	49.665108
7819.273286	219.254822	-116.630623	50.191116
7819.276619	218.670380	-116.630623	49.489777
7819.279948	219.430145	-116.338394	49.255989
7819.283315	219.430145	-116.513741	50.308006
7819.286661	219.371704	-116.396843	50.191116
7819.289947	219.956177	-116.338394	49.606667
7819.293300	220.248383	-116.572174	50.424896
7819.296619	221.767975	-116.455292	51.126244
7819.300377	221.884857	-116.630623	51.769142
7819.303710	222.527771	-116.689072	51.476913
7819.307043	223.696686	-116.981300	51.769142
7819.310373	223.872009	-117.390419	53.347168
7819.313711	225.274689	-117.916428	54.223846
7819.317064	225.391571	-118.325546	54.691414
7819.320424	227.320282	-118.267090	54.983635
7819.323721	227.144958	-118.500870	56.444771
7819.327102	228.196960	-119.085327	57.321449
7819.330403	229.599640	-120.020462	58.022797
7819.334129	230.534760	-121.247818	59.191704
7819.337474	231.586792	-121.481598	60.477501
7819.340809	232.697235	-121.540039	61.763298
7819.344177	232.872589	-122.182938	61.587959
7819.347562	234.509064	-122.767380	62.873756
7819.350907	235.151947	-123.293396	64.334892
7819.354235	236.379303	-124.754532	65.386909
7819.357454	237.197540	-125.046753	65.737587
7819.360801	238.191132	-125.748093	66.614258
7819.364562	239.418457	-126.800110	67.783165
7819.367990	240.295135	-127.969025	68.601402
7819.371316	241.697845	-128.144363	70.062538
7819.374696	243.158966	-128.787262	71.757454
7819.378026	244.795441	-129.488602	72.575691
7819.381380	246.315033	-130.482178	74.387497
7819.384674	247.016357	-131.300415	74.796616
7819.388057	247.659241	-132.001755	76.725304
7819.391407	250.932190	-133.229111	77.543541
7819.394730	251.984222	-133.755112	78.829346
7819.398029	253.445374	-134.573349	80.173584
7819.401354	255.374054	-135.333145	81.751610
7819.405155	256.601410	-135.859146	84.323204
7819.408504	259.172974	-136.443604	85.375221
7819.411850	261.510803	-138.196960	87.303917
7819.415178	263.965515	-138.196960	89.115723
7819.418504	265.543518	-139.365875	92.914673
7819.421843	268.115143	-140.476334	95.077156
7819.425222	270.511383	-141.236130	97.414970
7819.428543	272.440094	-142.346588	100.921684
7819.431836	275.713043	-143.690826	103.902397
7819.435142	278.284607	-144.099930	106.824669
7819.438924	281.206879	-145.911743	109.863823
7819.442294	283.895386	-147.197540	113.428993
7819.445585	286.466980	-147.840454	116.351250
7819.448922	290.499695	-150.470474	120.500877
7819.452252	293.071289	-150.996490	124.825829
7819.455565	296.461121	-152.632965	128.858551
7819.459016	299.324951	-153.743439	132.248398
7819.462315	302.013428	-155.496780	136.456451
7819.465586	304.468140	-157.308594	141.365860
7819.469355	308.091736	-159.120407	145.749252
7819.472687	311.481598	-160.055527	149.723541
7819.475994	314.111633	-162.744003	154.340729
7819.479296	316.916992	-163.912918	160.068375
7819.482655	319.956146	-165.958511	165.153122
7819.485964	323.345978	-168.004089	169.770294
7819.489278	325.976044	-169.465225	174.504379
7819.493061	329.541199	-171.803040	179.764465
7819.496594	332.931030	-173.731735	185.784332
7819.499931	335.970184	-175.660431	190.459961
7819.503258	339.301575	-177.530685	197.005844
7819.506593	342.223816	-179.868500	201.623016
7819.509949	346.081238	-180.803619	207.467560
7819.513276	349.587952	-182.907669	213.078308
7819.516597	352.919342	-184.719467	220.208649
7819.519930	356.776733	-186.648163	226.228531
7819.523277	360.809448	-188.226181	233.241959
7819.526591	364.257721	-189.862656	240.956741
7819.529921	368.115143	-191.265350	247.911728
7819.533255	371.621826	-193.486267	255.334305
7819.536593	375.537689	-195.239624	262.815338
7819.539927	380.330200	-196.817642	271.991241
7819.543692	384.304504	-198.220337	281.108734
7819.547020	389.038544	-199.623016	290.401520
7819.550351	393.071289	-200.850372	300.512573
7819.553731	397.045593	-202.369965	309.746948
7819.557043	401.487427	-203.188187	320.617798
7819.560369	405.344818	-205.584457	331.897736
7819.563679	411.481598	-207.279358	342.768555
7819.567042	414.403870	-207.863815	354.866760
7819.570758	418.261230	-208.974274	366.438934
7819.574108	422.703094	-210.902985	379.355347
7819.577466	425.976044	-211.838104	392.563995
7819.580796	429.716553	-213.591461	405.421967
7819.584199	433.340149	-215.344818	418.981293
7819.587551	436.613098	-216.747513	432.131531
7819.590776	439.593811	-217.565765	446.742859
7819.594109	443.217377	-220.254242	462.113983
7819.597464	445.555237	-221.189362	479.063110
7819.600793	448.769714	-222.299820	494.142059
7819.604605	449.412598	-224.286972	508.870270
7819.607931	451.750427	-225.222092	525.118042
7819.611288	453.503754	-227.209244	541.248962
7819.614650	454.964935	-228.611938	557.379883
7819.617949	456.718262	-230.073059	574.679687
7819.621333	457.302734	-230.891281	591.336670
7819.624710	457.828735	-231.417313	608.811768
7819.628017	457.478058	-232.235535	626.053162
7819.631313	458.062531	-233.229095	643.528320
7819.634611	457.068939	-233.229095	661.412598
7819.638398	456.367615	-233.229095	679.530701
7819.641728	455.783142	-233.579788	696.772034
7819.645034	454.555817	-233.287552	714.656311
7819.648444	452.685547	-232.352432	732.891296
7819.651752	450.406189	-231.417313	751.652222
7819.655101	448.185272	-230.073059	770.296326
7819.658442	445.613678	-228.670364	789.232605
7819.661784	441.931610	-226.449448	808.344238
7819.665073	438.191101	-224.053177	828.390930
7819.668401	433.632385	-220.546463	848.203918
7819.672168	428.956757	-217.448868	865.971313
7819.675549	424.339539	-213.357697	886.368835
7819.678845	418.845703	-208.740509	905.188110
7819.682209	412.066040	-204.649338	924.650452
7819.685536	405.052582	-199.272354	944.755737
7819.688820	397.279358	-194.479828	963.224365
7819.692165	388.804779	-189.102859	981.634644
7819.695464	379.044403	-182.440094	999.869690
7819.698863	369.693146	-176.537125	1017.286377
7819.702617	358.939209	-170.283463	1034.060181
7819.705982	347.425476	-162.334900	1051.476929
7819.709279	335.210388	-155.905899	1068.016968
7819.712588	322.177094	-149.184692	1082.160767
7819.715977	309.026886	-141.879013	1097.824097
7819.719311	294.766205	-134.456451	1111.149536
7819.722611	279.219757	-126.858566	1124.475098
7819.725978	264.959106	-119.552902	1136.748657
7819.729288	248.711273	-111.545883	1148.087036
7819.733021	232.697235	-103.655754	1158.840942
7819.736570	215.280518	-96.291649	1167.958496
7819.739907	197.805389	-87.875511	1175.731689
7819.743241	180.388672	-80.160721	1182.102295
7819.746568	162.796600	-72.212158	1189.641724
7819.749903	143.509644	-64.263596	1194.901855
7819.753262	125.508476	-56.081238	1198.700806
7819.756570	106.572182	-47.431328	1201.623047
7819.759902	88.044998	-38.606079	1203.610229
7819.763233	69.400940	-29.780830	1204.486816
7819.766574	50.756866	-21.014027	1203.960815
7819.769899	32.288136	-12.188779	1202.265869
7819.773239	12.825832	-2.545295	1199.986572
7819.776985	-4.941555	6.747516	1197.122681
7819.780344	-22.884281	17.384571	1193.966675
7819.783683	-41.177673	27.378727	1188.706543
7819.787033	-58.185272	37.197544	1181.868530
7819.790327	-75.309769	47.834599	1173.569214
7819.793665	-91.966690	58.004089	1165.386963
7819.797005	-108.506721	68.699593	1156.327881
7819.800314	-124.579185	79.044418	1145.690796
7819.803662	-140.417877	88.863235	1134.936890
7819.806997	-155.496796	100.026299	1122.955566
7819.810766	-170.400360	109.845116	1108.987061
7819.814196	-184.485687	119.722382	1095.310913
7819.817490	-199.097015	129.190536	1081.167114
7819.820803	-212.714783	139.593811	1066.848022
7819.824079	-225.631226	148.711273	1051.359985
7819.827412	-237.846283	157.711868	1034.878418
7819.830761	-250.353607	165.777328	1017.695435
7819.834102	-262.744019	173.725891	1001.038513
7819.837499	-274.959106	181.323776	983.388123
7819.840849	-284.953247	188.337234	966.438904
7819.844583	-295.765656	195.058441	947.561035
7819.847896	-305.759796	201.195206	928.916992
7819.851201	-314.994141	205.987732	911.032715
7819.854615	-325.046753	210.780258	891.687256
7819.857921	-333.988922	215.631210	873.393860
7819.861254	-341.411469	219.663940	855.217407
7819.864584	-348.541779	222.410858	836.690186
7819.867906	-355.730560	225.742264	818.221558
7819.871234	-362.977814	227.729401	800.278748
7819.874649	-368.296326	230.242554	782.452942
7819.878370	-373.497955	231.995911	764.393311
7819.881744	-378.465820	233.807724	746.976624
7819.885056	-382.440125	235.093506	729.852112
7819.888403	-387.291077	235.794846	712.318542
7819.891718	-390.154877	236.496201	696.421326
7819.895046	-392.200439	237.080658	679.647522
7819.898389	-394.596741	237.197556	663.750427
